Time (s),HRR (kW/m²),SEA (m²/kg),MLR (g/s),COY (kg/kg),CO2Y (kg/kg)
0,-0.630574490555934,-2.22404985194351,0.0537784583333352,0.0008841026008456,0.0080352737546407
2,0.506183020819398,-1.87987784987056,0.0381620416666681,0.0008624557934649,0.0081103121664469
4,-0.240006282160635,-1.40328450369091,0.0616563750000001,-0.0003239705836941,0.0062847734369901
6,0.407247568987775,2.89871208292023,0.0248762916666672,-0.0019161898473232,0.017766883718316
8,0.807573983493743,0.0,-0.0119155000000003,0.0,0.0
10,0.649621156084391,-17.796250338738,0.0058844583333329,0.0039062839760109,0.117917876139564
12,0.307106051125458,-18.9846088712417,0.0102302083333332,0.0062387299103982,0.0689098914583564
14,0.765803825938469,-2.1989683431732,0.0249393333333335,0.0024290893591946,0.0221748736782732
16,0.677459657648755,0.0,-0.0266235833333333,0.0,0.0
18,0.433372634611521,0.0,-0.0148367499999999,0.0,0.0
20,0.864507646467066,-2.66490018300362,0.0190546250000006,0.0018325606087942,0.0283940780886955
22,0.463577966185984,0.0,-0.0441696249999999,0.0,0.0
24,0.266822320161447,16.9226609533233,0.0186035833333333,0.0046519477339975,0.0383681770241699
26,0.840038126463097,13.9526519691844,0.0584936249999998,0.0005792626103229,0.0103036321354765
28,0.360221276658146,0.0,-0.0201442499999992,0.0,0.0
30,-0.64108426135109,0.0,-0.0149514583333333,0.0,0.0
32,-0.126308536823721,51.2626306804378,0.0261450416666666,-0.0003488723258693,0.023641970418869
34,-0.599815028396652,126.920641731436,0.0135049583333339,0.0017354199528374,0.0577343045126658
36,-0.682134510168946,0.0,-0.0218572499999996,0.0,0.0
38,-0.139076421028815,0.0,-0.0456925833333338,0.0,0.0
40,-0.599872737429899,531.655735933408,0.0261973333333339,-0.0006262857522705,0.0299183518299222
42,-0.638732541763746,456.24223460908,0.0395581249999998,0.001874705578712,0.0160039281293384
44,2.70693558851207,2534.11862263049,0.0026789166666665,0.0854094469595472,0.228611412282764
46,11.1590149884851,12.6457585927932,0.091358125,0.003804315467654,0.0111195303205608
48,19.3297978546471,13.3796835388402,0.0368557083333344,0.0110261723204791,0.0334486168512207
50,27.5905169377185,0.0,-0.0329216666666657,0.0,0.0
52,37.7859958404385,36.5448612569807,0.0563173333333333,0.0083284045169443,0.0586029767194412
54,46.6146160008052,65.5163211278883,0.069505666666666,0.0080995034115425,0.0619423259779651
56,55.0428452078466,185.473219960475,0.0472190833333329,0.0150944488059956,0.121905427943793
58,61.2851793247876,368.415735298451,0.0513720000000002,0.0172682881044031,0.144297421394551
60,71.0998761104672,318.114506223078,0.0858910416666672,0.0137319638044979,0.106656012041362
62,77.9103088398444,391.480119361615,0.0748062500000006,0.0204904725869654,0.146771241332964
64,90.2033667846394,1917.5274608348,0.0178509999999997,0.126625242021954,0.756796907965867
66,100.070127189904,758.318185136027,0.0545596666666661,0.0530272235255452,0.284434280125007
68,105.521807064718,427.53082106883,0.0967356666666673,0.0360916751428979,0.179415918788651
70,113.194365831463,1172.28894892361,0.0389459166666663,0.101714181274502,0.519948744263
72,113.471182155261,690.541761334418,0.069974916666666,0.056908306033424,0.321068755036702
74,110.376544946343,245.294423967828,0.196292208333334,0.019120430075702,0.122707294377448
76,107.092619631409,420.858627789105,0.104175041666667,0.0341866781651661,0.24959152810205
78,107.537966308548,0.0,-0.0147491666666667,0.0,0.0
80,102.165188256741,1347.39893989503,0.0246493749999992,0.127204358125217,1.20578597519059
82,100.324848969109,305.504241306818,0.106963249999999,0.0273850679500825,0.295574581037582
84,95.6174656053505,659.147441298641,0.0466380416666672,0.0584572185720355,0.689463863372297
86,94.4387534532949,1618.43153069498,0.0237788750000002,0.112792569282339,1.4231372094453
88,90.5497761048001,412.812381574291,0.095695333333333,0.02688424017606,0.350768433167198
90,92.4898671247609,482.230217416842,0.0612022500000002,0.042678125846703,0.565567448446866
92,93.743002839492,518.502050937559,0.066246291666667,0.0400836298615067,0.537646433366718
94,93.5816032074133,420.271974299878,0.0666408333333329,0.0392651123543191,0.538991617087322
96,95.9243936335405,2254.21689498626,0.0129019166666671,0.202804864256458,2.87550306908255
98,92.4713069782694,2234.61089309501,0.0133051250000006,0.185622076584035,2.77963345411161
100,92.4806993963967,392.2983761442,0.0657240416666666,0.0380958034488617,0.581386446784085
102,91.7293336431974,322.604149819945,0.0796697916666664,0.0314584529308162,0.488106834505201
104,90.6986392416815,2899.28195406772,0.0082700833333326,0.30243809074746,4.81172647544118
106,90.9549992578214,910.376343347361,0.0282873333333331,0.0874956296455723,1.4314118606631
108,88.9862640882581,151.772874021587,0.162521208333334,0.0147754805692191,0.248104779399626
110,91.4902418494683,342.923379570836,0.0616679166666666,0.0399524852539768,0.685670487471794
112,89.4226181548199,0.0,0.000195583333333,12.2382899929776,211.59188188899
114,90.9644108159836,393.560303948943,0.059926333333334,0.0396319252575464,0.69923812305987
116,93.1395299012017,315.384975808401,0.0811934999999999,0.030136238608741,0.536431595736669
118,93.6132595482218,1233.0145657043,0.0206229583333339,0.123662497148206,2.15298189458812
120,92.4848733916442,0.0,-0.0015501666666672,0.0,0.0
122,94.5789403690385,378.800222934135,0.0761639166666657,0.0347398848070123,0.602190758747593
124,94.5329334239026,804.551217656263,0.0378575833333342,0.0690595019888064,1.20523645376871
126,94.6782970089061,450.619070794466,0.05693025,0.0445887080530716,0.800722464674389
128,95.3649244196622,154.978800339991,0.164876458333332,0.015326890294583,0.282047530835418
130,97.345487014316,479.221368085062,0.0613159166666669,0.0419717525349558,0.789896479918805
132,97.1590487708786,0.0,-0.0060056666666659,0.0,0.0
134,94.9617442127091,431.61892093613,0.0565830833333341,0.0431842196794759,0.870824513671008
136,94.9775138117779,545.361255617448,0.0428980000000004,0.0558151798338147,1.16911573768841
138,93.7329117978126,419.231265595096,0.0524711666666657,0.0430871573778343,0.962533461210501
140,93.2894814819558,682.516332823961,0.0332279999999988,0.0650348567011121,1.54245456766126
142,92.282001599132,256.967232120749,0.0827612083333342,0.0250997823916847,0.617981783872717
144,89.6890894289243,276.817458508545,0.062943041666667,0.0315352877729238,0.800980201220181
146,88.6864428542262,3151.93750985553,0.005976291666666,0.329498455888726,8.52146958206533
148,88.9020405348967,189.362969561405,0.0807278750000006,0.0247872126535714,0.641268200535125
150,83.9840477431989,254.235974795711,0.0592708750000008,0.0317098176147947,0.846791879347242
152,83.6322948244457,0.0,-0.0195932916666672,0.0,0.0
154,84.8264855164827,555.951052339538,0.0298976249999989,0.061976434456106,1.7280246885517
156,82.6374910701182,150.113388399378,0.0945940416666671,0.018952927215305,0.537290154426127
158,79.5841318480125,502.38968013372,0.0243917500000005,0.0708372136092121,2.04787581400976
160,81.1305100073644,0.0,0.000658791666667,2.56455924638952,77.4174770252776
162,79.3704952390994,125.156643882552,0.102027666666666,0.0155987880931386,0.496532832697143
164,78.9269210998847,128.621758665305,0.0913762499999997,0.0168945938473668,0.553144634915565
166,78.4550968051519,430.732112231142,0.0266737083333335,0.057010743250452,1.85941858051608
168,76.1765864958056,164.21215556218,0.0682019999999991,0.0215541108236453,0.716624607950384
170,75.2071084922864,333.01579534547,0.0322987916666667,0.0442740949251946,1.50012212758249
172,75.6137468268438,0.0,-0.0152825833333334,0.0,0.0
174,74.2522137186112,144.076925985987,0.069314416666667,0.0195887330265677,0.697916795345563
176,73.1317503727894,136.39111374576,0.0739705833333337,0.0184065238274814,0.646498019087775
178,73.6328439725098,1418.10186880047,0.0061730000000001,0.223000958080476,7.69337520354627
180,75.3683591200741,1442.90837541726,0.0055436249999994,0.254527263308193,8.79241145214603
182,74.700393307928,92.8217421278492,0.0871698333333334,0.0154313296372044,0.550671251603907
184,75.1125159199931,130.553085254743,0.0654787500000002,0.0199773017321435,0.73275040474728
186,72.6879736392855,3083.17666805591,0.0020948749999991,0.609430066391295,22.2375538973513
188,72.7212404625588,121.536141299471,0.0627508750000011,0.0210839928282637,0.741012183418097
190,73.4693319542052,165.311525304745,0.0467059583333341,0.028800324713673,0.999065172610967
192,71.6376472173747,0.0,-0.0382921666666666,0.0,0.0
194,71.0120313112749,264.755404350547,0.031549124999999,0.0390718963501441,1.44085533747984
196,73.0108513178274,103.079547352777,0.0810994166666664,0.0151556824783939,0.570566161348784
198,71.7362990076423,184.099693619116,0.0410493333333341,0.030169090352474,1.11593033557387
200,73.3790697796151,183.204489029873,0.0410282916666662,0.0324231341222601,1.12715201823389
202,72.8257882261178,328.294746900154,0.0214636666666667,0.063378147091293,2.12199192072838
204,71.3680865321199,89.6296657597738,0.0900447916666677,0.0150801379259031,0.50265117266532
206,71.5514297515899,265.825219555415,0.0273823749999999,0.0487924903069265,1.64317536251724
208,70.4298244557365,0.0,-0.0150507083333342,0.0,0.0
210,70.351484730195,124.389330440336,0.0723239583333332,0.0184108697377328,0.622536446494462
212,70.821919991171,273.412811134985,0.0349467499999996,0.0401413736051522,1.29061219713053
214,68.9939178923766,164.093792918307,0.0457471666666677,0.0301410494269331,0.956412899943299
216,69.0427184927843,148.071134858698,0.0572409166666662,0.0245197433672579,0.777279261525936
218,69.6998017696415,1629.03006578483,0.0049123333333329,0.286019274596352,8.93302062234481
220,70.3105357929747,0.0,-8.7749999999757e-05,0.0,0.0
222,68.6624317804357,187.393470217472,0.0389019583333345,0.0350144630408968,1.09783249559155
224,71.1107763021223,176.230841282645,0.0476523333333336,0.0295525698675875,0.925634487276141
226,70.4405615856694,0.0,-0.0152569583333347,0.0,0.0
228,68.6657105548327,0.0,-0.0003047916666664,0.0,0.0
230,68.537695196668,73.792767748881,0.110650500000001,0.0116790849227899,0.385958014541493
232,69.0999436980311,237.205014689,0.0378750000000001,0.0360317634756733,1.16285285279016
234,67.8352621148285,0.0,-0.0207943749999999,0.0,0.0
236,68.6856382883444,95.2904987840914,0.0914537500000006,0.014838877597802,0.47460097466355
238,68.6011236694701,134.854401953318,0.0611609583333334,0.0217584398907818,0.715732295375549
240,68.1202280538199,0.0,-0.0004218333333335,0.0,0.0
242,67.7990910296396,384.869322865519,0.0260262916666664,0.0537044616487944,1.65774886212256
244,68.0537084798463,263.674386379809,0.0345640833333343,0.042355631023743,1.26698439261453
246,66.6470609728118,145.40465476346,0.0537704166666667,0.0269930645339404,0.795906800432839
248,67.9571950607545,245.429757707717,0.0362171249999993,0.0390357552635468,1.16929769680117
250,67.7790514273132,167.343038413802,0.0543375000000005,0.0252831109647052,0.784999220444542
252,68.9914590442716,261.942402007521,0.0400607916666669,0.035482427145025,1.08530410234434
254,67.2987222756767,0.0,-0.0273459583333337,0.0,0.0
256,65.0756802986295,116.3666753595,0.0642210416666664,0.0210710669930778,0.647069415009418
258,66.3668479644902,98.822498184609,0.0725343333333347,0.0190137106935871,0.58332968314699
260,66.2353032342083,0.0,-0.0343754583333344,0.0,0.0
262,65.9194883561757,237.336590862892,0.0324844583333331,0.0425866531239044,1.31559011404408
264,65.8577233706795,100.646223912588,0.0710361666666677,0.019635844522815,0.592519769822707
266,66.884652235363,846.129380532294,0.009545541666666,0.145718099214924,4.46451200418535
268,64.8647192924941,174.783393592465,0.0444762916666662,0.0292984956937472,0.937180654183976
270,65.1261059962115,104.658262990104,0.0871545,0.0145596777466555,0.481599339346368
272,65.8390622820807,237.572806132813,0.0294871249999991,0.0431443212052349,1.44269687194563
274,64.3882825191113,0.0,-0.0261870416666664,0.0,0.0
276,65.8172470565218,1317.75447794416,0.0063371250000003,0.2074768025927,6.58568060536258
278,67.014999057994,137.487623701554,0.0691182499999994,0.0192106360824273,0.613626320033502
280,65.9378067537462,155.18896290517,0.0545081249999995,0.0241045496900967,0.769890053044293
282,64.094212713527,1669.879322887,0.0047869166666666,0.271757691373009,8.51704164457092
284,65.3831790168386,153.352134888071,0.0469380416666671,0.0287803123058695,0.896192741264386
286,64.7419647684916,108.075714526982,0.0738412916666671,0.0188823462155713,0.569027879965862
288,64.5310765542235,2960.4251309939,0.0022356249999995,0.62620958528897,18.6214762691095
290,65.3942205666201,2974.40937056319,0.002774000000001,0.505672973180243,15.1982024574088
292,63.9894150872043,160.252963838693,0.0454480416666662,0.0300579989546823,0.918554068719925
294,64.5556926507685,0.0,-0.012528625000001,0.0,0.0
296,63.8971491759464,214.839927770524,0.0393922500000006,0.0345288037563786,1.05287577760855
298,63.3474335168028,71.9518306834086,0.105988416666667,0.0128076845885056,0.388076276153983
300,65.6497421210487,0.0,-0.0182176250000003,0.0,0.0
302,64.0280119309363,487.152059289839,0.0141918750000003,0.0895679892287981,2.92462787336284
304,63.8308834974605,56.3855436065967,0.129834041666667,0.009803700798467,0.318771498258852
306,64.8206323237311,226.80152196515,0.0360510416666666,0.0372728107650022,1.15876924523105
308,63.5492734616979,0.0,-0.040572749999999,0.0,0.0
310,64.1070172365648,586.825757440277,0.0125261666666655,0.105332237318777,3.33822194371565
312,62.2118037999084,161.224506718162,0.0410851250000002,0.0304735955830838,0.978573070420683
314,63.8761673391253,404.867878216238,0.0179410833333334,0.0729268869575058,2.32853544383021
316,62.7704977616442,968.940021474273,0.0071949583333338,0.184207712262143,5.73525330554257
318,61.340926963795,93.0685916692999,0.0747023750000008,0.017645325949698,0.532507918988169
320,62.6345375510391,108.900234262671,0.0589116249999999,0.0225267376304251,0.686659755942785
322,63.2121562004491,1418.40045007876,0.00518275,0.250760373220926,7.81369117613949
324,64.4945631015074,82.7614266071373,0.0900137083333329,0.0141062673137839,0.455667541364377
326,62.1004950103828,149.226271276472,0.0444106666666655,0.0268995643774628,0.899541586832567
328,61.2095547252681,0.0,-0.0817659166666673,0.0,0.0
330,62.7752011489558,0.0,-0.0260969999999996,0.0,0.0
332,61.8539742543159,79.7671241096651,0.07569425,0.0155129875665257,0.529595677895165
334,61.6989635527938,153.968697850673,0.0456938749999993,0.0260205090996477,0.88300770086377
336,60.3635584671133,547.021949050542,0.0118557916666677,0.0979266613723298,3.29219517349037
338,61.2628169576366,84.8175353048592,0.0809630416666671,0.014713911436307,0.493415717826686
340,62.7871648627242,117.833723665442,0.0545624999999994,0.0222699726617088,0.744884110195511
342,62.0655139793056,1063.36324962263,0.0071987083333343,0.161982581570989,5.54076843777939
344,60.4451242215677,226.886617204914,0.0351474166666663,0.0331831331043326,1.12778461710391
346,59.8667251286232,393.473031528777,0.0169776666666663,0.0723466412406064,2.32108325001206
348,61.210624113139,0.0,-0.0235507916666665,0.0,0.0
350,59.3457358027613,1186.291064683,0.0062355833333341,0.192167860251428,6.23602405775985
352,58.7731311370233,109.892681667311,0.0714531666666664,0.0162075304729021,0.53449850868154
354,58.3956763460072,195.903321403818,0.041188749999999,0.0282619717014655,0.932793939522835
356,58.1994972009626,423.630632323368,0.0183916666666669,0.0644101509740743,2.09393179851266
358,59.8234670959066,103.774127668278,0.0619631666666664,0.0200023534183431,0.632587155407142
360,58.6593820715418,243.377464956411,0.0322407083333339,0.0386433181313609,1.21872004766744
362,58.2879756567724,0.0,-0.0295557916666662,0.0,0.0
364,59.0723603450255,248.280111443747,0.03363725,0.0368223427188374,1.15783133469156
366,59.3934487875824,105.450217213219,0.0705751249999998,0.0178688835811501,0.56017599134704
368,59.8979681562018,0.0,-0.0350132916666671,0.0,0.0
370,59.2837734684841,0.0,-0.0154788333333326,0.0,0.0
372,59.1080119049185,88.2211739212111,0.103833583333333,0.0117151592071287,0.375221864608377
374,58.0309337793496,123.409455681714,0.0663573333333328,0.0183237452115243,0.577543361898553
376,58.0521808531572,0.0,-0.0312201666666659,0.0,0.0
378,58.5707210402479,141.211995360992,0.0579657083333327,0.0205119658989027,0.6630801176743
380,57.6761533034312,103.426478094843,0.0778401666666662,0.0146687708278355,0.483646811341805
382,58.429651935817,0.0,-0.0656291249999999,0.0,0.0
384,59.3268480072731,409.137721901783,0.0170482916666666,0.0697842909423887,2.27804209384382
386,57.7522263738523,100.147822100653,0.0741922500000001,0.0162737817540842,0.510433310531987
388,58.261659055965,876.322343985685,0.0071221249999999,0.170362074709869,5.33694127480257
390,58.6159331820541,440.3420560782,0.0161274166666659,0.0750325671029627,2.40070784638892
392,58.985603086948,156.351179387047,0.0532450416666667,0.02314900387328,0.723032494049912
394,58.2959830815412,118.312678886117,0.0627877500000005,0.0200307251863169,0.600311678615443
396,57.506096727609,1587.84446783081,0.0031297499999999,0.401814178866425,11.8774017528862
398,59.006483172268,1018.9949610112,0.0081202916666667,0.159649888403547,4.63408632568273
400,58.6770078399703,213.836756431284,0.0338322083333334,0.0376861057785124,1.09628569700299
402,58.7562686526582,0.0,-0.0304165833333336,0.0,0.0
404,57.2096210558317,0.0,0.0005344583333339,2.39113461498409,70.1389836451612
406,56.6589911429804,179.215076414252,0.0495220000000007,0.0257266658860629,0.755425146347313
408,56.0192015605731,755.964063075386,0.0110713333333334,0.115994061558151,3.36715888670845
410,55.4968368218478,188.399359288397,0.0362185000000001,0.0348150757238021,1.01311691830186
412,55.3183194653103,141.907556267206,0.0509911250000007,0.0238213765003305,0.720901379472154
414,56.1340494172484,523.405233999175,0.0117157499999991,0.104234862595182,3.21814024676983
416,54.6921429745336,2391.78509481702,0.0030129166666658,0.40916623377552,12.1305878938681
418,53.85330304507,1193.85175688213,0.0059331250000004,0.201819432321471,6.04998415052202
420,53.6077600655664,141.829616252038,0.0485432499999998,0.0247335286119001,0.752702181728334
422,52.402064661728,467.654302769705,0.014370291666667,0.0825728700256852,2.48053450489452
424,53.3840936803752,0.0,-0.0204192083333338,0.0,0.0
426,52.2493545819601,53.3091693096421,0.0938993750000003,0.0132169852357631,0.379323101966147
428,53.5575058147871,149.664773394978,0.0391881666666666,0.032486654288016,0.913343645692243
430,52.4456885196784,0.0,-0.0527875416666668,0.0,0.0
432,53.0606843469981,989.7159232796,0.0069182916666668,0.1812172870933,5.12712755622149
434,53.2818075340703,117.272052368104,0.040175166666667,0.0329542752055116,0.880180037723389
436,51.1675132377762,137.884853456299,0.0356445000000001,0.0374800142483599,0.973093076575258
438,50.3683541981334,0.0,-0.0209622500000002,0.0,0.0
440,51.974572900125,146.938696792453,0.0386427083333327,0.0345734314443246,0.904043029684252
442,49.4526242099714,100.235595458017,0.0615417499999998,0.0206633568893001,0.552927222943296
444,49.9319282697074,1496.34705121972,0.003523375,0.376824597078239,9.82845313027877
446,47.5692535762831,69.9327472056625,0.0621712500000003,0.0209800164967783,0.52783438449898
448,47.4020634983297,260.437182505166,0.0174622916666667,0.0744979024568816,1.89173129663957
450,46.8016358358407,0.0,-0.0567424166666671,0.0,0.0
452,46.2295668291079,642.699641315807,0.0059726666666665,0.230657676912415,5.32221862632526
454,46.1723936446937,61.5488818705252,0.081639958333333,0.0180109051131079,0.399681544251334
456,44.9345007448298,285.425148849797,0.0137629166666667,0.104946590450499,2.26453702455037
458,45.7289827914463,0.0,-0.0198889166666666,0.0,0.0
460,43.7244816255654,39.9073751057361,0.0909464166666663,0.0150392741135812,0.342083572277401
