Time (s),HRR (kW/m²),SEA (m²/kg),MLR (g/s),COY (ppm),CO2Y (%)
0,3.724776619,0.0,-0.311256333,1.17356,0.002635
1,3.919867066,-0.225572829,0.170931667,1.23814,0.003268
2,4.074265034,-1.59828666,0.072732667,1.31646,0.003887
3,4.401679334,0.0,-0.034616167,1.33945,0.004557
4,4.287891168,0.0,-0.005810667,1.42895,0.005002
5,4.035941943,75.07566408,0.001952167,1.32745,0.005277
6,3.933791658,44.08450443,0.0074485,1.17093,0.005441
7,3.953509636,0.0,-0.000143417,1.11566,0.005419
8,3.268436517,0.0,-0.004801833,1.22239,0.005286
9,3.363883752,0.0,0.000956917,1.40141,0.005028
10,3.218636815,0.0,0.00089425,1.42213,0.004708
11,2.945442946,0.0,-0.007016083,1.32878,0.004395
12,2.827348507,472.8148935,0.029379667,1.26805,0.004122
13,2.871765929,496.1303903,0.034706417,1.32906,0.003819
14,3.076769309,383.8207009,0.046165083,1.59582,0.003661
15,3.314262016,203.3506874,0.100294083,2.12741,0.003587
16,3.927443447,245.812232,0.122678917,2.9306,0.003848
17,3.950703301,103.7495634,0.344657083,4.26514,0.004501
18,5.286614545,169.3528014,0.266515667,6.16407,0.005585
19,8.154044504,0.0,-0.074624417,8.42357,0.00719
20,10.8119498,0.0,-0.085075417,10.9821,0.009463
21,12.4977752,664.5456844,0.03812325,13.2023,0.012117
22,13.61825297,175.3341776,0.086490667,15.9157,0.015052
23,14.90239096,122.6166484,0.14134825,19.4208,0.017639
24,16.85762812,134.5034328,0.210924417,24.3351,0.020558
25,21.28140895,86.34690608,0.158961333,31.4626,0.023844
26,28.61319668,130.1036885,0.124687917,40.7645,0.028304
27,39.98883094,329.0401704,0.065102083,51.9595,0.034708
28,53.19420666,577.752542,0.031486583,63.6889,0.043388
29,66.00775609,423.766154,0.056847583,75.893,0.054585
30,79.11586552,170.6241817,0.140205417,88.8245,0.067235
31,90.41639631,135.2549448,0.177162667,101.382,0.080946
32,100.9116147,166.6464362,0.123328667,113.808,0.09556
33,108.7053019,378.288558,0.047554083,125.591,0.109655
34,115.2798036,126.2773052,0.133776417,136.362,0.123457
35,119.7525228,90.06919125,0.197415833,145.266,0.136295
36,125.458191,210.9555223,0.077859167,152.792,0.147217
37,127.4777173,65.40474601,0.250619333,157.967,0.156471
38,128.0692807,81.15632592,0.243898833,162.333,0.16421
39,123.3908562,416.1692583,0.028405583,165.339,0.169438
40,121.9406038,0.0,-0.002732583,167.379,0.173226
41,120.1651077,0.0,-0.0149725,169.038,0.175284
42,117.3763683,1687.622507,0.025733167,169.85,0.175654
43,112.9807196,660.5940759,0.0797425,169.97,0.174674
44,107.9128297,299.7785237,0.165835583,169.603,0.172733
45,101.3785373,302.4102772,0.152615083,168.36,0.169415
46,91.33307309,286.540851,0.14018775,166.004,0.164531
47,82.19331724,153.8287622,0.21456875,163.162,0.158041
48,71.47770496,331.4150854,0.11824975,160.05,0.150368
49,62.7758247,4197.773689,0.008733,156.732,0.141262
50,54.64509021,0.0,-0.011578583,153.257,0.131949
51,49.04323166,734.7480986,0.04392175,148.972,0.121985
52,43.88627621,295.0875844,0.100595083,145.414,0.112043
53,39.29454256,754.5916709,0.039833333,141.794,0.102905
54,35.70963131,712.822169,0.035323667,138.57,0.09416
55,33.07355818,129.7653361,0.199432,135.128,0.086587
56,31.0609971,129.5539707,0.174473417,131.972,0.079797
57,29.25992888,2163.806538,0.01227325,128.939,0.073681
58,27.61689435,0.0,-0.003138917,126.277,0.068592
59,26.32158693,0.0,-0.007656833,123.672,0.064073
60,25.61737089,1100.00881,0.028256333,121.573,0.059985
61,24.74333917,142.1376586,0.171420833,119.631,0.056651
62,24.3168229,64.79494795,0.352820833,118.029,0.053783
63,24.1418096,88.91502234,0.257222,117.101,0.051139
64,23.36934492,0.0,-0.027917583,116.249,0.048826
65,23.0673173,0.0,-0.073767083,115.717,0.046974
66,23.23013476,0.0,-0.012418083,115.606,0.045359
67,23.65375744,338.4703467,0.054046833,115.5,0.04391
68,22.75438491,368.8190206,0.05900925,115.831,0.042656
69,22.37359836,600.6606207,0.038520083,116.443,0.041457
70,21.87689277,644.6232629,0.036941,117.504,0.040411
71,22.84207569,433.7247973,0.047112833,119.041,0.039641
72,23.38744404,189.0426226,0.096703667,120.804,0.038975
73,23.6997696,55.69552727,0.354225917,122.498,0.038361
74,24.05514071,75.05466385,0.277847417,124.207,0.037856
75,24.10706153,0.0,-0.042682083,126.113,0.037455
76,24.16386296,0.0,-0.0183315,127.828,0.037043
77,24.09427404,357.6335789,0.051930667,129.933,0.036707
78,23.75740224,308.6288346,0.062714417,131.919,0.036484
79,23.63650336,0.0,0.00088675,133.892,0.036312
80,23.90969872,449.4858124,0.03478925,135.584,0.036207
81,24.00160232,182.3761651,0.043609333,137.216,0.035957
82,23.49609476,0.0,-7.85e-05,138.773,0.035871
83,23.59198296,116.2632244,0.044652167,140.053,0.035744
84,23.96657284,69.71860257,0.113719583,141.596,0.035744
85,25.30741092,112.2378556,0.064974417,142.476,0.035911
86,27.63106553,217.7064134,0.028143083,142.494,0.036494
87,32.77997015,81.58200317,0.075677667,141.316,0.037924
88,37.61195971,43.17949499,0.169442833,138.781,0.040902
89,43.9036468,50.75548543,0.13247275,135.92,0.045285
90,49.69119776,851.4529348,0.006339083,132.524,0.050939
91,55.19313925,0.0,-0.008152583,129.253,0.057211
92,60.69687962,184.7224917,0.03256225,125.655,0.064046
93,67.4926978,186.9785502,0.03698,122.118,0.070783
94,71.73403162,133.9526942,0.048631167,118.955,0.077783
95,75.6400203,64.61923494,0.105886417,115.393,0.084783
96,79.78748213,78.11120193,0.086519833,112.12,0.091197
97,83.87886207,52.88071413,0.134245583,108.344,0.097158
98,85.50188508,31.74481991,0.21676975,104.484,0.102973
99,88.58966977,53.68260609,0.098548333,100.521,0.10831
100,91.71974652,50.60762402,0.144060667,96.5381,0.11337
101,92.68325925,45.5611772,0.173588833,92.8373,0.117942
102,93.77594185,2087.397114,0.003579,89.3206,0.122045
103,94.80534416,130.7030791,0.044701083,85.7262,0.125704
104,95.74983498,93.25963103,0.059721,82.7165,0.128837
105,96.55751866,109.479033,0.0475305,79.6632,0.131768
106,96.36871029,172.8056752,0.0372095,77.5043,0.134195
107,97.87896301,99.96031972,0.048750667,75.3631,0.136212
108,99.49226011,89.24934835,0.061544833,73.384,0.138025
109,99.86107727,1951.485687,0.002867667,71.1961,0.139722
110,101.0306171,0.0,-0.013721917,69.1641,0.141099
111,99.25034116,65.58676883,0.060903,66.8352,0.142282
112,98.10804461,13.633152,0.264127,64.6702,0.14303
113,97.50018666,19.26815257,0.207744333,62.8291,0.143667
114,98.79254668,362.8555577,0.011183,61.0235,0.144195
115,98.78382296,770.7512969,0.004293833,59.2781,0.144594
116,96.40011168,0.0,-0.00442325,57.8654,0.144811
117,96.32796074,133.9732825,0.023678083,56.5089,0.144596
118,96.80870253,95.69137628,0.040591083,55.0292,0.144128
119,95.83725901,2239.769924,0.001402583,53.6354,0.143731
120,94.90421239,0.0,-0.00807325,52.4941,0.143143
121,95.6304206,58.33113379,0.051931667,51.2075,0.142523
122,94.77447422,48.68052057,0.06468725,49.8016,0.142012
123,93.60501153,0.0,-0.003622917,48.6055,0.141488
124,93.69983375,54.54094016,0.037540667,47.6385,0.140855
125,92.30721087,17.02790972,0.131321167,46.7498,0.140024
126,92.48458404,7.376589375,0.254492083,46.0144,0.138979
127,92.35899244,17.86490112,0.11036325,45.4704,0.137929
128,91.06982227,56.01487917,0.046238167,45.0705,0.136677
129,91.24059363,23.72676972,0.120874083,44.8245,0.135139
130,88.9907364,184.9724721,0.01188025,45.0089,0.133473
131,88.30791748,0.0,-0.007228083,45.7399,0.132061
132,86.71233259,56.45520588,0.031695167,46.8841,0.130507
133,84.71959968,69.37786893,0.040111417,48.4643,0.128645
134,82.7652694,0.0,-0.003704667,50.626,0.126447
135,79.28880055,83.61041462,0.038755333,52.8385,0.124045
136,77.79522306,19.70500465,0.15731225,54.9068,0.121556
137,77.40744401,40.73238989,0.079910833,57.14,0.118945
138,75.13987976,0.0,-0.033187167,59.3081,0.116486
139,72.82226646,72.52796458,0.02805125,61.1691,0.113861
140,70.88252114,89.03290276,0.025786083,62.6121,0.111277
141,70.40806339,46.64430757,0.054945167,63.8365,0.108682
142,69.55157174,40.23629989,0.058327583,64.8099,0.10628
143,68.30096381,32.9481516,0.04779075,65.7673,0.104019
144,67.92201552,15.96016867,0.116557,66.5542,0.102033
145,67.13500504,41.90609149,0.072058167,67.1257,0.100159
146,65.39521263,541.5272195,0.003868333,67.5174,0.09832
147,63.8151802,0.0,-0.009909083,67.7952,0.096586
148,63.49431958,55.04670074,0.044698833,68.2156,0.094998
149,62.22415861,43.4080303,0.0481745,68.8148,0.093471
150,62.06818524,0.0,-0.016169083,69.2727,0.091948
151,60.94435743,35.98826283,0.048644,69.9128,0.090374
152,59.98161435,22.48219111,0.057931167,70.666,0.088982
153,59.21664196,33.16913536,0.050946667,71.2834,0.087656
154,56.76661381,22.12112321,0.076171417,71.9188,0.086095
155,57.50413562,8.084800273,0.189923167,72.7812,0.084553
156,57.10966393,11.49108689,0.134353917,73.6605,0.083166
157,55.52354338,2207.011431,0.000728,74.374,0.081881
158,55.17516497,34.00792813,0.0420425,74.8161,0.080699
159,55.21971938,0.0,-0.003230083,75.3267,0.079576
160,55.61167391,20.38808754,0.045800083,75.6385,0.078631
161,55.16978926,20.23153113,0.066446833,75.4926,0.07789
162,54.60129939,413.3646216,0.003080333,75.2956,0.077278
163,54.51719498,0.0,-0.015782333,75.0534,0.076662
164,54.02741679,14.15578864,0.08765175,74.8837,0.075938
165,53.2614361,14.37617439,0.1096525,74.7613,0.075227
166,53.44185211,129.7431182,0.008218417,74.7077,0.074644
167,53.44727407,0.0,-0.001351583,74.586,0.074257
168,53.29687679,0.0,-0.007648,74.2793,0.073836
169,53.00409584,16.93601175,0.04589725,74.1065,0.073336
170,53.4723311,14.63755403,0.058440333,73.6919,0.072974
171,52.1908911,17.89552772,0.063428917,73.1754,0.07265
172,52.32413644,11.11674166,0.058870667,72.5203,0.072199
173,51.44104089,8.813688349,0.033890917,71.856,0.071728
174,50.74624637,16.36101074,0.037172417,71.4662,0.071532
175,51.1861233,0.0,-0.004895917,70.9439,0.071403
176,51.33822523,14.92068318,0.05159075,70.2169,0.071323
177,50.95687923,10.85623617,0.064766583,69.6875,0.071068
178,51.57797104,0.0,-0.002888917,69.157,0.070858
179,51.27065604,20.50291979,0.03428075,68.7977,0.070806
180,50.00314988,4.679170601,0.138659417,68.3263,0.0707
181,49.87154405,4.604698879,0.174603,67.8424,0.070425
182,49.63170461,8.636649132,0.06511225,67.5204,0.07003
183,49.63604726,14.41930497,0.039527,67.2761,0.069696
184,48.77326819,4.547286457,0.061007,67.0711,0.069381
185,48.08213773,75.40386732,0.00589725,67.1433,0.069129
186,47.96251182,0.0,-8.92e-05,67.47,0.068981
187,47.1780287,0.0,-0.003022667,67.8692,0.068622
188,46.30383693,21.02061209,0.017409833,68.2276,0.068117
189,46.43076796,4.685844138,0.148412,68.5781,0.067572
190,45.69814219,3.163766989,0.1370315,68.9705,0.067088
191,45.09409779,14.15381537,0.011650833,69.2996,0.066711
192,44.98944087,0.0,-0.003164,69.6109,0.066328
193,44.57373261,0.0,-0.010325083,69.8163,0.065866
194,45.18420325,5.516650247,0.03690775,70.0067,0.065386
195,45.32930651,25.46796103,0.045736917,70.1351,0.064953
196,45.10581893,0.0,-0.006997333,70.423,0.064512
197,45.41512564,11.11005815,0.050785583,70.9591,0.064169
198,43.63875067,10.26992491,0.052209333,71.6904,0.063825
199,44.26817403,7.527826149,0.091831083,72.4085,0.063337
200,44.48793112,6.572525407,0.1052665,73.0668,0.062656
201,43.46421216,154.3902491,0.005466833,74.0252,0.062023
202,43.02110001,638.2826233,0.001361583,74.9165,0.061343
203,42.02367307,0.0,-0.009289083,75.6443,0.060607
204,41.54577835,7.455096721,0.055443917,76.4643,0.059894
205,40.68370189,5.900658772,0.067194083,77.1815,0.059251
206,41.16549985,0.0,-0.00896,78.0928,0.058723
207,40.52995182,20.40513879,0.053826,78.7616,0.058074
208,39.78806021,13.65759558,0.063879083,79.1959,0.057498
209,39.68971106,0.0,-0.00211775,79.7175,0.056993
210,39.60290209,0.0,-0.005988833,80.2368,0.056527
211,39.38840238,15.80245635,0.033261083,80.6993,0.056137
212,39.83822597,21.87549762,0.033741917,81.2613,0.055774
213,39.20370348,14.45696424,0.056021917,81.7091,0.055298
214,37.81680086,17.0408121,0.073394917,81.9435,0.054901
215,37.40217982,134.3426643,0.006925,82.3322,0.054596
216,37.42964982,0.0,-0.00905425,82.7908,0.054073
217,37.63224115,0.0,-0.002062333,83.3244,0.053628
218,37.82410442,0.0,-0.008244667,83.8578,0.053312
219,36.94353439,10.48482952,0.052504417,84.3027,0.05294
220,36.87279761,9.14754862,0.0658285,85.0172,0.052561
221,36.5874287,1901.135295,0.000354083,85.757,0.052317
222,36.44391518,15.63416282,0.03218875,86.5013,0.05208
223,36.87355754,18.04008979,0.0335535,87.0548,0.051866
224,37.25128781,12.74509095,0.056851,87.6732,0.05172
225,37.0338745,16.26371589,0.054892583,88.2179,0.051657
226,37.00928353,14.12645023,0.052775167,88.6709,0.051489
227,36.04586362,16.07777113,0.0651905,88.9876,0.051247
228,35.7931475,0.0,-0.001739333,89.1655,0.05109
229,35.81173003,15.55192989,0.030641417,89.537,0.050843
230,35.51150065,9.923438731,0.047333917,89.8108,0.050533
231,34.98438614,0.0,-0.004340583,90.0053,0.050302
232,34.38023489,18.73810453,0.046156583,90.5708,0.05015
233,33.45831134,5.600421906,0.065194167,91.3867,0.049931
234,33.74642789,131.9403588,0.004587333,92.2103,0.049528
235,33.89900416,0.0,-0.009462917,93.0033,0.049136
236,34.43011296,10.48252166,0.045231083,93.5606,0.048886
237,34.59284815,2.375258385,0.10771725,94.1333,0.048638
238,34.58856757,11.11166817,0.067998667,94.5795,0.048459
239,34.44782656,198.7437215,0.005354667,94.8653,0.048361
240,34.58542729,25.46314575,0.030735167,95.0339,0.048249
241,34.99885729,1.548368457,0.04287475,95.0546,0.04806
242,34.92448041,6.161945294,0.00336625,95.1128,0.047828
243,34.82410534,0.0,-0.011564333,95.1245,0.04781
244,34.53816108,2.434660734,0.051824833,94.8004,0.04782
245,33.79974561,-1.085859168,0.065551083,94.5815,0.04771
246,34.58116114,0.0,-0.006143333,94.2858,0.04767
247,34.72025874,3.796364416,0.062904,93.6738,0.047706
248,34.79908085,2.654131687,0.069297,93.1831,0.047729
249,34.68735716,0.0,-0.011968,93.0129,0.04787
250,34.72772904,7.589440473,0.03040975,92.4904,0.048049
251,34.62995686,10.20350308,0.033314083,92.0483,0.048109
252,35.17922416,8.6473002,0.05125775,91.8256,0.048256
253,36.11059697,8.737956943,0.063947333,91.6668,0.04855
254,36.3175036,87.67894624,0.005279417,91.513,0.048543
255,35.97963868,0.0,-0.001032583,91.5526,0.048614
256,35.72674011,449.6063297,0.00079075,91.7775,0.048817
257,35.87893445,0.0,-0.004618583,92.0522,0.048722
258,35.92974171,14.33594389,0.04677625,92.4331,0.048572
259,35.63946368,7.354343672,0.10130525,92.9537,0.048467
260,34.54780826,43.61804768,0.0121205,93.3687,0.048298
261,34.39417877,0.0,-0.04666725,93.821,0.048107
262,34.70949026,25.3719355,0.032140083,94.3304,0.047805
263,34.22885822,19.46416787,0.034567833,95.1781,0.047711
264,33.97633607,10.07457389,0.055643917,96.2144,0.047488
265,33.98585855,6.551535321,0.058608917,97.5729,0.04713
266,33.09652459,13.7273722,0.057800583,99.2468,0.046757
267,32.75518905,13.87421406,0.060775333,100.925,0.046282
268,32.2968533,26.52475721,0.034722583,102.691,0.045741
269,31.8950402,19.01501147,0.038222917,104.348,0.045299
270,31.9528301,95.48460596,0.009020167,106.274,0.044709
271,31.5498116,706.8587899,0.0014835,107.901,0.044142
272,31.70149595,0.0,-0.011138583,109.526,0.04354
273,31.75025784,13.76531948,0.05128075,111.178,0.042898
274,31.72722517,9.101136887,0.055776083,112.447,0.042431
275,31.62177728,6.057796086,0.059190167,113.679,0.04196
276,31.46615513,8.099202399,0.069070833,114.729,0.04151
277,30.50249828,0.0,-0.002509333,115.385,0.040997
278,30.49984195,29.36719281,0.028885083,115.693,0.040515
279,29.41238433,11.85371801,0.039802167,115.526,0.040143
280,28.99819615,45.19757249,0.013999917,115.228,0.039921
281,30.06345752,0.0,-0.009765417,114.77,0.039747
282,31.01638231,6.885083723,0.090394917,114.466,0.039747
283,30.43619237,5.757770028,0.1269375,114.585,0.039792
284,29.99205509,252.9518394,0.000944917,114.858,0.039661
285,30.31274285,3.446346296,0.051656917,115.024,0.039554
286,30.67974892,6.510453902,0.06851075,115.452,0.039447
287,30.84456331,0.0,-0.00072825,115.749,0.039357
288,31.17350989,0.0,-0.0044295,115.719,0.039271
289,31.71495546,0.0,-0.003282833,115.731,0.039151
290,31.54608959,16.48647734,0.040706583,115.455,0.039114
291,31.08855516,6.116620416,0.04412875,114.679,0.039274
292,31.38681529,0.0,-0.009493917,114.07,0.039472
293,31.56323533,11.22179887,0.050252833,113.349,0.039822
294,31.67612377,5.778140117,0.062969417,112.769,0.039948
295,31.99187053,97.42628562,0.00472525,112.261,0.040124
296,31.45864966,0.0,-0.008474583,111.924,0.04044
297,31.25906997,9.44491073,0.051434417,111.603,0.040678
298,31.63054477,7.777491423,0.062701583,111.488,0.040915
299,31.77779433,13.16751694,0.03791525,111.603,0.041156
300,31.39793892,12.67961443,0.0431655,111.792,0.04137
301,31.56215519,0.0,-0.036652583,111.914,0.041509
302,32.32060329,0.0,-0.015672,111.875,0.041678
303,31.90000947,6.717180373,0.072963,112.027,0.041838
304,31.9165287,9.152778253,0.0646465,112.14,0.041947
305,31.3932359,41.15904973,0.0147625,112.124,0.04207
306,30.35157512,11.49066936,0.0522005,112.164,0.042249
307,29.62706323,13.8348335,0.063654667,112.276,0.042472
308,30.68818501,108.6006464,0.003938167,112.347,0.042683
309,31.46317569,0.0,-0.001320167,112.545,0.042838
310,31.63694604,0.0,-0.001905083,113.218,0.042983
311,32.651377,14.59699526,0.033360417,113.905,0.042998
312,31.91689184,22.661321,0.037389083,114.576,0.043056
313,31.76462296,139.1526701,0.005119583,114.962,0.043151
314,31.27552581,13.97773728,0.055550917,115.244,0.043089
315,31.40803783,9.62900043,0.05380225,115.602,0.042935
316,31.51369242,0.0,-0.0080845,115.853,0.042766
317,31.74775995,-3.502206944,0.043210583,115.808,0.042725
318,30.976016,-0.471590239,0.09765925,115.571,0.042777
319,30.02618963,-3.258910034,0.04881625,115.257,0.042716
320,30.85257335,18.08133616,0.001697417,114.373,0.042781
321,32.04374064,0.0,-0.000838417,113.137,0.043065
322,32.1620991,0.0,-0.005177583,111.503,0.043475
323,34.10238794,-3.23468636,0.05334375,109.419,0.044027
324,35.06877425,2.854266395,0.065899,107.145,0.04474
325,35.69459845,-5.055684349,0.004565583,104.917,0.045827
326,36.26674497,0.0,-0.009813583,102.596,0.047115
327,37.57155394,-7.808539737,0.03459575,100.656,0.04834
328,39.54258569,-1.399877155,0.139531167,98.8673,0.049547
329,40.49281181,-0.174602237,0.202231833,97.0651,0.050845
330,40.68122281,-0.138768432,0.118018833,95.1684,0.052024
331,41.29217586,0.0,-0.034113833,93.4446,0.053064
332,41.3215925,0.0,-0.047379333,91.5982,0.054106
333,42.71085484,-252.2212787,0.00133075,89.4268,0.055273
334,43.90133507,-87.77247466,0.00469225,87.5471,0.056401
335,45.04598855,0.0,-0.006187583,85.7892,0.057603
336,44.93171219,-4.533461161,0.039951,84.2575,0.058563
337,45.54485717,-6.337093018,0.035207417,82.7703,0.05955
338,45.66054216,-6.87942224,0.04572925,81.3334,0.06047
339,47.42469816,-1.722495153,0.06496825,79.8713,0.0613
340,48.13922728,-57.48287874,0.005246583,78.72,0.062265
341,48.47906947,0.0,-0.000869417,77.4127,0.063303
342,48.71881265,0.0,-0.00042075,76.0329,0.064133
343,49.20049385,0.0,-0.008781583,74.8544,0.065117
344,49.06581612,-6.638179773,0.051394,73.6144,0.066062
345,50.73563002,-6.102233803,0.0617145,72.4848,0.067004
346,50.86756008,-63.99747414,0.003487333,71.4298,0.067854
347,50.65761857,-8.79036317,0.041643083,70.4451,0.068736
348,50.47497186,-2.983802628,0.144859167,69.221,0.069522
349,51.16454313,-3.229970792,0.110317333,67.9467,0.070284
350,51.68322559,-783.5055152,0.000435917,66.654,0.071107
351,51.02907674,-3.959027892,0.057856417,65.4865,0.071718
352,52.62759329,-38.08475668,0.011112667,64.18,0.072153
353,52.21469927,0.0,-0.058374083,62.7547,0.072709
354,51.87928645,0.0,-0.011087167,61.6846,0.073384
355,51.8963079,-6.057209816,0.05023,60.7736,0.073952
356,52.34811658,-3.558141038,0.061649917,59.7815,0.074519
357,53.46785497,-75.42335209,0.005250333,58.7909,0.075077
358,53.83414603,0.0,-0.007747167,58.0744,0.075661
359,53.34410258,-10.33597393,0.035140833,57.5225,0.076232
360,53.51387672,-6.654624064,0.037104917,56.7821,0.076955
