Time (s),HRR (kW/m²),SEA (m²/kg),MLR (g/s),COY (kg/kg),CO2Y (kg/kg)
0,2.5738256510699,3.41280867432598,0.078766499999998,-0.0009589715954486,0.0185941309431773
2,1.74304866510652,0.0,-0.0404465833333365,0.0,0.0
4,2.75749775401188,0.0,-0.005934666666669,0.0,0.0
6,0.749170226590925,-32.1685461646923,0.0171770833333348,-0.001599378718296,0.0680072207068276
8,0.654588098841868,0.0,-0.0191031250000003,0.0,0.0
10,0.913642379668982,0.0,-0.0239852499999988,0.0,0.0
12,-0.533987598135053,0.0,-0.0024872083333325,0.0,0.0
14,-0.229612391776826,309.647153453251,0.0008475416666655,-0.093239453386892,0.70487521127391
16,-0.247013928619828,4108.11858139324,2.77083333329505e-05,-1.92038246139819,16.3736367641097
18,-1.1312768920618,0.0,-9.71666666676659e-05,0.0,0.0
20,-0.229243224583646,0.0,-0.0043601249999989,0.0,0.0
22,-0.181226206829331,16.4785856503261,0.0294363333333327,0.0007051629425818,0.0242111205631977
24,0.470190002484314,15.9174605910862,0.0294172500000013,0.0015425118690101,0.0166795478407733
26,2.27846061246217,0.0,-0.0078723749999992,0.0,0.0
28,20.4329192983833,224.123907487737,0.019451958333331,0.0037253083661422,0.655416975982532
30,55.2985518214343,62.2379018225513,0.0478663333333348,0.0022783618742317,0.69783089908187
32,96.2648994744911,402.134395612894,0.0540072916666672,0.0039656596968491,1.0507636127863
34,131.032336831385,521.430478959223,0.0764832083333336,0.0066386424452881,1.03178888762788
36,162.256251515144,676.445326059367,0.0967954166666664,0.0098373835607914,1.0313059152691
38,188.36532853072,891.18715644573,0.0956148750000014,0.014549861428191,1.20855320797149
40,215.095606157871,727.869396252328,0.123742750000002,0.0157418410919869,1.06170874440446
42,233.440142698719,837.330172127227,0.125971291666667,0.0189532930627839,1.14474906708495
44,250.767865420198,887.098814999545,0.120147333333332,0.0233977115960483,1.28632665645923
46,259.72623668105,645.141635481848,0.153449833333335,0.021354333040178,1.04169951507182
48,265.336452098296,924.292533010786,0.130648708333334,0.0274447407395986,1.25572360367721
50,275.496873458954,1410.56846443025,0.101750250000001,0.0395503247161209,1.68527632447447
52,270.527365751164,1098.65152092205,0.125726500000002,0.0335840862740394,1.3478458996328
54,270.594385696113,821.626881592329,0.148707541666664,0.0300832099446448,1.14018383054652
56,273.300831726904,990.459646301412,0.148604916666665,0.0313073821113499,1.15386009426896
58,276.371767012531,1225.86959221685,0.121125333333334,0.0397094318282139,1.433662277844
60,282.863031713343,1312.12287660289,0.125201,0.0387532114380509,1.41456668304538
62,289.537934630288,1022.68574301602,0.152771708333332,0.0323767884542703,1.18298751573812
64,288.231751285096,1042.51241848211,0.153315875,0.0322811359179297,1.17229427719266
66,299.992273481076,1081.75723948233,0.144497791666667,0.0365024308120571,1.28735915044434
68,293.943787879728,1037.90380569021,0.148727375000001,0.0349494133612001,1.23140475936614
70,301.208992739738,1157.01816569756,0.155405375000002,0.035348487215945,1.21511841596771
72,300.664152664701,1131.80617777948,0.149326666666667,0.0370166397978976,1.24607348055392
74,311.157025374897,1268.48884752896,0.148246833333331,0.0393067904410682,1.2935017399141
76,314.454227001884,954.503862596903,0.173902833333334,0.0343449657046301,1.1175461144252
78,315.594961014357,1039.48926580514,0.173356166666665,0.0355710869298089,1.12233148770441
80,313.995587279228,1307.70336364463,0.14609225,0.0424266605166251,1.33193433953058
82,314.318021060191,1203.43144659118,0.148520916666667,0.0424269430198924,1.31622432026351
84,310.772300476515,1328.91517739668,0.155021541666666,0.0403695653649483,1.23652985059659
86,309.635784569541,1200.5601190914,0.152017041666667,0.0407539621911408,1.25294487125164
88,313.98954117702,1011.69691163524,0.177258166666667,0.0354896950458271,1.09392486454797
90,308.102947669567,1230.86363266405,0.149272208333335,0.041656722223813,1.27394166323897
92,308.55467776599,1360.5741214311,0.122810625000001,0.0513420212919021,1.55372496034007
94,304.568840370767,1174.65377711466,0.152100249999999,0.0410268697746406,1.24539988973861
96,310.789714997744,1120.86821818002,0.173084083333333,0.0366715873617776,1.11524833354794
98,302.741506290456,927.579737928972,0.172645333333336,0.0361871666204252,1.08984276174366
100,301.228143708941,1201.73365914202,0.146447416666666,0.0427538979157636,1.28331018845432
102,300.024650352273,1327.95647046822,0.149994333333332,0.0421730276164901,1.24468493541067
104,301.744646858591,1288.39834589423,0.150230041666667,0.0423529645964324,1.24515797663295
106,297.637399244009,1324.87581043226,0.148710916666667,0.0423837781262924,1.24101287225755
108,301.276399337654,1255.6938516492,0.156337000000002,0.040547476186088,1.19602166186516
110,298.761420087195,1129.17857741469,0.154881125,0.0396728750206791,1.19903846260137
112,299.430630564145,1159.47013091689,0.149782291666666,0.0406611608389412,1.24125692760569
114,304.255126903393,1240.9964768354,0.145384083333332,0.0424693845163846,1.29653482546268
116,294.149593249525,1184.07998061979,0.149089999999999,0.0396954051599388,1.22930865726333
118,293.588509271616,1125.56038915541,0.156657666666665,0.0381292162176556,1.17158700963125
120,296.946498470224,1276.22234670237,0.143220375,0.0413355657471358,1.29736296138046
122,299.407209879617,1224.21752553271,0.150910041666668,0.0393496372787188,1.24508247359978
124,293.446938939543,1153.69959724584,0.150974791666666,0.0385853005791332,1.21867235176008
126,287.633387638853,1311.75472571381,0.145887166666667,0.0394525355348361,1.23448910860013
128,289.99189233161,1399.77604463098,0.127464458333333,0.0459798367615693,1.42983665690014
130,287.490573700206,1382.3408098641,0.126209208333333,0.0454846072956209,1.4288638569393
132,292.324709211716,1089.38906690986,0.157114583333336,0.0364390998895646,1.16386381430094
134,290.282557256901,1570.75510443915,0.119010875,0.0472082909442067,1.53407548382079
136,288.406797934706,1133.1198958458,0.147025416666666,0.0373130671468987,1.22901498016316
138,285.720577418783,1066.00780844254,0.15411075,0.0352419232908016,1.15979835755245
140,282.903746375833,1518.37683439404,0.118694625,0.0454316371173296,1.50181295305217
142,287.792199457282,1091.12301929826,0.153509375,0.0360970742542374,1.18199191356054
144,283.411236959482,1174.05205398897,0.150997625,0.0356140125045136,1.17992170120494
146,286.709171960636,1220.72062984973,0.141013833333333,0.0378662852355249,1.28009376521589
148,283.883504610827,1179.86505737947,0.149389083333335,0.0355905942148731,1.19224366102096
150,283.246493110035,1186.34032096828,0.153979541666667,0.0349269557512896,1.15165756427427
152,281.167124728771,1002.2870885351,0.153340624999999,0.0358953822268724,1.1554528551216
154,281.981939208931,1270.23759609866,0.125625208333332,0.0436695623704139,1.40765783122209
156,284.741400868335,1430.91457580591,0.127004,0.043724699202872,1.40645864860437
158,281.972269143682,1019.1450444848,0.153465208333333,0.0355541237343246,1.15030269365393
160,289.225505942218,1091.20544132989,0.144748833333334,0.0377196298689448,1.24732153123856
162,289.635026381518,1190.96904426164,0.14507875,0.0376581680513449,1.24912687828057
164,290.172030086394,1201.46949785354,0.153669333333335,0.035860372604309,1.17810557141362
166,292.813347268998,1285.47753935014,0.126943416666665,0.0438295343398504,1.43710980378081
168,290.265592990266,1245.01853294786,0.125980708333333,0.0434982336303701,1.43435210883024
170,289.299848978558,1224.96224411769,0.150822625000001,0.0376837061348819,1.20109510316812
172,287.304799813293,1398.37525365312,0.122553666666667,0.0465675522652777,1.46358811075162
174,292.600549394288,1365.32352047245,0.126384208333333,0.0464184510681714,1.44260877554196
176,290.482786946305,1197.57259492305,0.153395041666668,0.0378601428297811,1.1814175415531
178,296.829607228634,1347.54690887981,0.14446375,0.0401678704410458,1.27635930016875
180,296.960120469735,1141.42740249536,0.143489749999999,0.0401689732357733,1.28569612550858
182,294.538624369279,978.029495609535,0.158036791666666,0.0364526136589741,1.16284416073818
184,297.667148825217,1085.13206711129,0.154370125,0.0378422550053436,1.19842320277369
186,297.865040953655,1218.31941104632,0.149006625000001,0.0386060310690586,1.24405553265942
188,293.280865626858,1041.12303910907,0.146624416666666,0.0383775883941476,1.25151900208383
190,293.180533068045,1347.81847010673,0.144085791666665,0.0390930425288166,1.27224473043567
192,292.383693007404,1108.78601146853,0.150906166666668,0.0368274887194905,1.20638042462027
194,302.936351267656,1247.16606246682,0.148585333333334,0.0380082614245947,1.26568501958736
196,296.223912705269,1006.42539692194,0.154456625,0.035760525297985,1.19138594577555
198,295.241553290685,1084.63634784669,0.154040333333334,0.0362640149636385,1.19718826981895
200,296.39700738115,1036.83991493976,0.172260166666666,0.0326885504878478,1.07229242059884
202,298.03943202394,982.156164793005,0.180013541666665,0.0312826902860842,1.03021137068484
204,293.840524781715,1120.15227202979,0.146017708333335,0.0375578132445071,1.25638170928562
206,300.103956385213,1126.09814370107,0.146050666666667,0.0384144020550069,1.27959853441831
208,297.446142769712,1229.919442349,0.128050541666666,0.0430462177652899,1.43961783975988
210,294.717598537425,1267.31455690573,0.125861208333334,0.0429963279676099,1.45192509150381
212,294.703385400401,971.363063117577,0.154386916666667,0.0350576261620614,1.18221969170502
214,288.712750465008,993.996051671874,0.147236291666666,0.0363373384185695,1.21321049756269
216,291.119196587331,1509.67475962319,0.120221249999999,0.0447747188791611,1.50085037136921
218,285.990717253576,1251.37398223028,0.126836833333333,0.0418119800918965,1.39695547837039
220,286.162574502533,1307.29369785276,0.124828041666667,0.0433777615214558,1.41486556222881
222,283.215912973829,1301.17200682426,0.124692625,0.0434298009158594,1.40072527761791
224,281.017200208145,1251.82533202196,0.125194541666668,0.0427024382738878,1.380437380476
226,281.505193022617,1169.31645926008,0.129830291666665,0.0400169560085648,1.33053917509021
228,276.527849246853,1175.12796923459,0.128104125,0.0391345571619288,1.32577437290921
230,273.954052050318,1715.08458290776,0.0931667916666667,0.0531982907574622,1.80290387123745
232,266.600752713942,1205.35060010908,0.130478208333332,0.0373431523414753,1.25661861969917
234,258.988495203782,1066.56468395407,0.124221333333333,0.0377826616884227,1.28157734753485
236,251.518920673572,1018.40076007359,0.124146208333333,0.0372327690077074,1.25278006466531
238,246.531412918947,1207.15497894173,0.130484541666666,0.0354303720055759,1.17063540813853
240,247.041892527575,1760.51916296284,0.091314958333334,0.0514649835722293,1.67147643630621
242,238.322286674406,1166.14043664949,0.122298416666667,0.0373990681426185,1.20583503966148
244,227.152574288652,965.317478691045,0.130567791666666,0.0334079814280246,1.08321970261586
246,221.234358486472,1363.0921011122,0.100935791666667,0.0431704477584902,1.35250697271216
248,208.664265200349,1498.66174834423,0.0987094166666667,0.0428329286865574,1.31965000453162
250,195.951694863926,1318.92599635383,0.100786708333333,0.0403486566092097,1.22579868322066
252,190.278352707279,1261.45559106943,0.103737708333333,0.0375677648047873,1.16267431212138
254,179.583761766993,1728.58340637735,0.0761136250000005,0.0469828550936075,1.4991079031423
256,168.35878196804,1708.03261637245,0.0732821666666671,0.0449752374962566,1.4692480111345
258,157.767795334532,1474.04219880183,0.0757942083333328,0.0404804627600944,1.32798268874762
260,149.278416439541,1360.38183305892,0.0768976666666671,0.0375295348576547,1.24000857772613
262,140.238091463181,1482.33496439576,0.0734052083333342,0.036853849036365,1.23307053750812
264,132.579591185986,1986.45412879539,0.045961624999999,0.0556013098418809,1.86854570011274
266,128.46396740178,1655.29834855463,0.0542172916666675,0.043686964932901,1.52826885349041
268,121.182007265911,1268.28249737141,0.0544545833333331,0.0416931050825286,1.43109972175925
270,113.796990587325,1349.89250875058,0.049697833333333,0.0421688671018817,1.4917924920723
272,111.061029669915,1405.50710517029,0.0503938750000006,0.0382708999876935,1.42527865052688
274,107.18756584291,1210.58425585606,0.0515559166666669,0.037203642997751,1.35259192982467
276,102.776402165964,1463.96413580356,0.0446515416666668,0.0407564372123111,1.49359997763456
278,100.737368694659,1397.35950048465,0.045001208333333,0.0385317757987333,1.44772779037109
280,97.300476943445,957.008889628875,0.054987958333333,0.0293604932933275,1.1512667736141
282,94.7813677780595,1829.60475718973,0.0268057916666672,0.0583072969662708,2.29775510368862
284,91.8541593692308,1761.71793746761,0.0245490833333323,0.0617066793419211,2.43041929446176
286,90.8384620637037,835.310643422238,0.0518944166666667,0.0290451225700683,1.15095304803979
288,88.3487113002979,734.986528317707,0.0507145833333341,0.0309941917919906,1.13611296097611
290,86.8207205528876,851.016456218574,0.0478982916666656,0.0322108464740582,1.18580183451426
292,84.4965307177103,2053.5852815747,0.0211343750000005,0.0723110319291468,2.65480739547743
294,82.3580340734799,1016.4836483475,0.0278997499999996,0.0535850851135971,1.95400780055777
296,80.8429539540252,772.204133188701,0.0478530416666663,0.0302194461951531,1.12226370891878
298,79.7146062023754,651.119262131203,0.0484157499999999,0.0307280683312388,1.09692118191975
300,78.7427479541805,994.695620882699,0.032261333333333,0.0451106684256503,1.61620012655053
302,77.0958604081615,0.0,-0.0019291666666658,0.0,0.0
304,75.1040952341623,1389.28876296251,0.0206463333333334,0.0705936073492548,2.41306888616569
306,76.7847117276069,1306.09137144955,0.0235111666666656,0.0601210696052657,2.1426488917756
308,73.9104376855155,1016.24988839323,0.0278760416666666,0.0499739341048495,1.76323182835583
310,74.560374553874,614.98290158536,0.0513698333333328,0.0266854005651904,0.949425039341157
312,73.5669854682037,1146.39724690647,0.0211806250000005,0.0643306376961272,2.28520661287669
314,72.839663965933,745.874335139262,0.0283402500000013,0.0509687947702882,1.68486077074504
316,70.2824906339106,544.834542120021,0.0512235416666658,0.0277685688772997,0.912033252942166
318,68.7304547433595,1024.54850301705,0.0218232916666669,0.0642250898863448,2.08989952596113
320,67.2987690951159,914.943489179773,0.0259050416666666,0.0520654991715363,1.74830208562505
322,65.7774167127929,835.693577212287,0.0253421249999994,0.0553909069450112,1.74727446906169
324,65.6368248396758,1058.60810499738,0.0202500833333337,0.0687089835659416,2.12930927707866
326,64.4616259292863,495.322335536207,0.0518744999999998,0.0278867043297489,0.822869613077127
328,62.875776774007,771.479378426595,0.0328255416666661,0.0428792927958149,1.27416691978604
330,61.6453751174346,0.0,-0.0028643333333334,0.0,0.0
332,59.9113326196562,745.859699437799,0.0233972083333331,0.0515302574971128,1.71458297772609
334,59.6123724796004,400.336625499734,0.0501948333333333,0.0253932183564346,0.777302389198079
336,58.9689094595474,716.751564191918,0.0219698749999996,0.0560744668173909,1.73593589891348
338,57.7744616335572,617.196646394205,0.0259108333333334,0.0435618441153105,1.45574478161314
340,58.3080786600966,515.365420125988,0.0287682083333336,0.0371971349161902,1.30120536721786
342,57.9779379805591,0.0,0.0020379999999999,0.523340449212113,17.9742133778089
344,57.3729923979234,0.0,-0.0051502083333338,0.0,0.0
346,57.010723681694,557.494227968612,0.0295507083333334,0.0413828213125802,1.21696131838171
348,55.6746769458463,512.995327337227,0.0264725416666668,0.0472256878069896,1.31560256091356
350,54.5315350152753,749.141334148469,0.0184301249999992,0.0689471273094927,1.87548071986382
352,54.0716394935246,483.966808632761,0.0290834166666675,0.0419062167451682,1.17641589362651
354,52.6594889316976,0.0,-0.0010479999999994,0.0,0.0
356,51.0887727163694,476.443975044169,0.0225809999999996,0.0511213907243323,1.46743508986941
358,50.4687937476426,476.276780525588,0.0262082916666659,0.0443473261990204,1.23698220501988
360,49.9865322924349,499.995203033893,0.0250146666666663,0.0496860813701748,1.27986033156169
362,49.3192354364027,408.222048150746,0.0284158333333339,0.0449669197327394,1.12731802389226
364,49.8365649133834,0.0,-0.0013297916666674,0.0,0.0
366,48.6021496308318,576.749234925163,0.0225739166666667,0.0532170843130007,1.36696205387994
368,48.5919825557883,387.774630262282,0.0295903750000006,0.0439285247990109,1.05227268725561
370,48.0224015164899,0.0,-0.0012185416666673,0.0,0.0
372,47.4550433149485,600.413848697411,0.0208469583333328,0.068650321102309,1.45319749620423
374,47.0391236783147,388.101912697021,0.0273592083333337,0.0506089555350737,1.10649178234103
376,47.6431429801027,0.0,-0.0024200416666658,0.0,0.0
378,46.6912396990523,364.524891893542,0.0277624583333339,0.0497713781871304,1.0683391051763
380,45.0261994685185,325.553683176254,0.0283910416666663,0.0445708073426475,1.03105280750836
382,44.9018219326896,191.278562239963,0.0483105416666666,0.025139922403312,0.603169372464413
384,45.2114324971763,206.831848981578,0.0520098333333334,0.0219469895460011,0.571220828933992
386,43.9713873987043,0.0,-0.001216916666666,0.0,0.0
388,44.7200704713885,0.0,-0.0049812916666673,0.0,0.0
390,43.6992172827341,388.97093867717,0.029292291666667,0.0374742143015083,0.965325152004026
392,43.7508883766193,293.787804417972,0.029470041666667,0.0360022349027161,0.938023924964019
394,43.3668827265047,0.0,-0.0043216666666664,0.0,0.0
396,43.4054320305158,0.0,-0.0041872083333327,0.0,0.0
398,43.269992182054,279.016798698349,0.0294018333333339,0.0354000781350155,0.919051152618698
400,41.6160451682563,252.71102299789,0.0294775833333332,0.0344699145247463,0.885498081247474
402,40.3883023899272,0.0,-0.0040679999999994,0.0,0.0
404,40.5951089441611,0.0,-0.003429458333334,0.0,0.0
406,40.7612115248222,327.924075424224,0.0230608750000001,0.0462100686809613,1.14852863720487
408,40.5535532943724,276.978239617064,0.0295174583333332,0.0364142418707795,0.883901050736285
410,40.4322372403509,0.0,-0.0007115833333329,0.0,0.0
412,41.1812387084747,357.566035476309,0.0206070000000002,0.0483184956664888,1.2257907341905
414,39.6790228107572,230.548105253335,0.0273972083333334,0.0361002361078647,0.910876574298839
416,39.708660117505,0.0,-0.0013805833333329,0.0,0.0
418,39.7981517271662,297.985524795761,0.0225675416666671,0.0376984243463544,1.10215558231169
420,38.1868610988843,263.321582300469,0.0232386249999991,0.0363592450744667,1.04470829661992
422,38.3257539627653,1876.56125156745,0.0026086666666661,0.341726206692861,8.94843730006083
424,37.5250951286115,995.513543182161,0.0053679583333334,0.180244739697468,4.41658585916369
426,37.1330074575188,0.0,-0.0008559583333334,0.0,0.0
428,36.9338445058049,0.0,-0.003467416666666,0.0,0.0
430,36.3711488116111,258.52184851276,0.0229550833333336,0.0381992530311755,0.986386602017349
432,35.0700714729118,130.683996432097,0.0293727083333334,0.0334634026229613,0.749698990791566
434,35.0335015759039,1526.82028547528,0.0023330833333329,0.415843817493294,9.12866882081407
436,34.9694982952749,1458.90615313483,0.0025385416666668,0.358203144111559,8.38914596013919
438,33.9437329523227,0.0,-0.0236839166666673,0.0,0.0
440,34.3213165002649,0.0,-0.0236770833333334,0.0,0.0
442,34.2935106869086,3952.08545353275,0.0004905833333334,1.9477685131449,42.0670038343041
444,33.0242653213512,30.4258491851988,0.0172577083333338,0.0584476950630419,1.17057052879353
446,33.1751032027995,119.876505688225,0.0238882500000003,0.0374293398535617,0.837580298899106
448,31.9979970598448,281.879094727373,0.00304775,0.278895161332954,6.45010312719998
450,30.2381691438282,0.0,-0.0049175416666669,0.0,0.0
452,30.9937316113589,46.5213862542875,0.0295986249999998,0.032127780751591,0.652537720586365
