Time (s),HRR (kW/m²),SEA (m²/kg),MLR (g/s),COY (kg/kg),CO2Y (kg/kg)
0,1.26447566923988,0.0,-0.165764250000009,0.0,0.0
2,1.88134874907985,4.42474632058787,0.0222297500000073,-0.0055252134330691,0.035162994130529
4,1.69476342170088,0.0,-0.0621507500000022,0.0,0.0
6,1.49460351307053,0.0,-0.0619696666666689,0.0,0.0
8,1.83341288927598,-1.25590202659003,0.0358824166666677,-0.0015933258908076,0.0044785436660155
10,0.542136765175845,7.23292262842673,0.0267973749999998,-0.0007986631534542,0.0115055900430179
12,0.691199261013,-1.74848020215253,0.0245877500000023,0.0012513816077764,-0.0338390516135756
14,-0.0039719090488637,3.56962878401008,0.0511974166666667,0.0017602195235206,0.0064522735570899
16,-0.842423719203383,0.0,-0.0033797916666665,0.0,0.0
18,0.089234229419966,0.0,-0.0237546249999969,0.0,0.0
20,0.443499216350261,110.191873713121,0.0022872916666667,0.0470279777493889,0.732381054920317
22,-0.857618795126869,-43.009247625971,0.000512166666664,0.0108717646163697,1.99506927531007
24,-0.384973166935563,-10.1076431256806,0.010125708333334,-0.0028434304523133,-0.0068775977092589
26,0.946536394353082,0.0,-0.0723357499999991,0.0,0.0
28,0.476231415085933,0.0,-0.0415224999999992,0.0,0.0
30,0.739006255968285,0.713351477188514,0.0704677083333326,0.0005912363677523,-0.0094281638987113
32,1.21817388801319,-0.329274299752194,0.0285731250000009,-0.0018208858552272,-0.0346734122717225
34,0.56176206581264,4.22680918118099,0.0196858333333324,0.0008489088743665,-0.0141849491320449
36,0.481482358477313,2.86837325270056,0.0965625000000001,3.37423587762893e-05,0.004433548045594
38,1.62418613237829,37.404392199969,0.0209590000000007,0.0030956665540973,0.0503010803336334
40,1.96452062462765,0.0,-0.0225748750000004,0.0,0.0
42,2.94343747255758,346.389512896323,0.0172728333333353,0.019849749965981,0.10227467972763
44,11.0532497852794,87.1122973219819,0.129159916666667,0.0039670442426965,0.069572708886432
46,30.5046935312853,3.18549218858349,0.139695208333332,0.0048508303338781,0.210544322427473
48,68.4105369455078,8.48800934480504,0.0491593750000003,0.0193186847119603,1.04623737120713
50,98.6592587750454,119.486502748226,0.0672987916666689,0.021469078823259,1.07147465911772
52,127.458055978752,24.6092523419752,0.0871181250000002,0.026132220996909,1.20371021676862
54,176.107775855818,53.3421326924798,0.13542575,0.0215519232506907,1.05912449215682
56,228.855947699273,53.2469046936567,0.231707833333333,0.0143341032092114,0.819795139812988
58,272.354986108928,49.3930299850748,0.347949875000001,0.0095139155760968,0.623945047232987
60,312.130929319768,116.276542150183,0.193361791666666,0.0169796105458153,1.25979126210647
62,330.758849514462,77.373056931281,0.310409500000001,0.0102574069384794,0.816493770228446
64,339.126827554322,76.047168987147,0.306582416666666,0.0100161061267347,0.842282727765281
66,343.817231510994,85.920702270143,0.275234666666667,0.0109863588887316,0.947336144753931
68,342.756292219778,108.990135261099,0.290395958333334,0.0107591368809693,0.884749204466349
70,330.865484567897,230.175220654281,0.128503041666666,0.0257859776445555,1.92693082652738
72,313.180954772991,50.4454944956147,0.352588291666666,0.0090913229773072,0.664887919473102
74,305.616256039784,94.0202293064224,0.225057708333333,0.0134929234253696,1.02903584448864
76,305.905423830519,579.336151685975,0.0325383333333334,0.0846492831439409,7.11557890107976
78,309.824403290821,140.687393987378,0.13340275,0.0177257021710231,1.73464426464582
80,299.589167047908,62.9781988429846,0.340623749999998,0.005881363439238,0.656826437531527
82,288.712225248091,60.235834760645,0.279300916666667,0.0067568411735551,0.774645136030583
84,279.698955468564,444.04673010456,0.0392215416666682,0.0443819246684515,5.29296055970786
86,265.671149965628,67.7983638973929,0.232775833333332,0.0069811076012725,0.841680774649918
88,255.070316001206,50.8773160178397,0.253981499999999,0.0062686884158473,0.743090369007006
90,241.231130189377,138.108709827441,0.106477791666666,0.0138067329702645,1.68124023945427
92,235.319015319292,95.0038710971094,0.159316125,0.0091932560843114,1.10344513265463
94,227.066582719332,102.128576973476,0.109219624999999,0.0123817845461611,1.56537892589313
96,228.167281107134,149.486458888645,0.0574282916666666,0.0221725863973323,2.99152675651209
98,228.484724255587,92.7848857505132,0.0988951666666669,0.011701046251874,1.75330934710793
100,229.795748284497,50.0614046282203,0.293450208333333,0.0037974240825964,0.585207183957705
102,228.252593060559,58.1495803309637,0.224648541666667,0.0054426988923306,0.752493734740392
104,228.757533019988,4693.65478083466,0.0027002500000009,0.472490017067217,61.9916362790324
106,224.806422704954,164.795346273345,0.0768018333333337,0.0166258091213151,2.12942235581591
108,225.760053221373,159.523256117317,0.0755081249999994,0.0159715392588383,2.18698214390189
110,224.130252820039,32.8926420139668,0.270159208333333,0.0045814151528432,0.610518875957226
112,227.127802336383,39.3742188211364,0.286927166666666,0.0040978247040222,0.589148622628409
114,232.8227120333,277.160859013213,0.0458032083333334,0.0244216864019712,3.83469776105752
116,239.352695767302,167.275034795815,0.0739432083333346,0.0142109768131082,2.4614658498292
118,248.597081326376,38.9380190164343,0.331695458333334,0.0033583342249747,0.57482186337626
120,258.574504293384,34.7472042962109,0.307796874999999,0.0035488429334246,0.654030594095632
122,275.965592744072,184.141236575708,0.0656852083333341,0.0158996554691049,3.30751509849447
124,297.190771640166,84.628919911208,0.145748541666667,0.0081545656683557,1.61049749598914
126,314.557424910379,56.8187950533645,0.238131041666665,0.0050416333459458,1.0475298476354
128,345.701828562434,80.5348406207804,0.184742541666667,0.0071260344988069,1.48020275362852
130,369.214907862965,63.7915105335328,0.330075250000001,0.0044759754533449,0.886311871325509
132,392.836293498503,55.3127677263092,0.353352541666666,0.0044958378334841,0.875839964916222
134,407.028242594559,126.66945449068,0.161743124999999,0.0112509160139001,1.96119703719609
136,436.940499636363,71.8908822794419,0.367673833333335,0.005670902645047,0.92000958403909
138,447.814443573694,74.9537249025123,0.369593208333333,0.0056447613105464,0.929836567963811
140,456.239844631331,84.9162207840892,0.295563916666666,0.0074723924894152,1.1768361952682
142,467.207776960986,133.18944140323,0.191460833333333,0.0120117240405932,1.81486786211912
144,465.897930862148,85.2497092702414,0.309530833333334,0.007167208796909,1.09951704519157
146,448.737925643393,72.6604867937545,0.359389,0.0058220242745182,0.895779566118958
148,433.553638852111,72.8358765672357,0.351377916666666,0.0056686273671332,0.878534880645514
150,408.311857077702,106.427158173607,0.284766333333335,0.0068242717212804,1.02465215239734
152,385.230854968618,0.0,-0.0679942500000005,0.0,0.0
154,357.741186373726,162.241206199015,0.135729124999999,0.0141175873382989,1.8438170067229
156,327.348576279912,82.6626252098178,0.283311291666667,0.0062202728704899,0.802930795921931
158,304.177767364385,137.125220330093,0.171513833333334,0.0099095288923652,1.21773855553682
160,283.191253952304,178.866881717755,0.103485041666667,0.0173124770462633,1.88069885054833
162,255.030441244418,93.0080760897531,0.17328575,0.0097084288261304,1.02402164799628
164,237.222700663255,94.508211203177,0.114302625,0.0140355116344597,1.46132438544729
166,226.049688385588,43.8031210241824,0.226753208333333,0.0059715275604101,0.696857535800744
168,208.270366895375,47.6360099489884,0.1774175,0.0062286129037856,0.824518894087218
170,199.14931584193,0.0,-0.0267583749999997,0.0,0.0
172,181.76371692407,272.004346865338,0.0246414999999998,0.0288157748398856,5.04437172907994
174,170.725973036818,29.7725018699893,0.196345166666666,0.0033280120718055,0.59416487411077
176,158.765480622868,33.9931662418644,0.20769,0.0031654958777886,0.520563876199035
178,149.194273630957,0.0,-0.0154290833333336,0.0,0.0
180,135.547628801452,0.0,-0.0349655416666663,0.0,0.0
182,129.101984128029,499.633798666097,0.0060937500000003,0.0849367037601308,14.595909784779
184,118.077829682756,13.9655207313597,0.114486625,0.0049793181379496,0.696190425782472
186,110.331433063961,9.97963510241856,0.0846542499999995,0.0067848905627873,0.871779669044237
188,105.122726921367,26.9021432438412,0.0166007500000003,0.0306329983128391,4.20682811225096
190,97.5395230880034,6.44047346415135,0.0416681666666667,0.0086575493716997,1.56535828809104
192,92.8912906980246,3.15056897635538,0.0880231666666664,0.0045620227250335,0.712365397572439
194,87.5183765913289,3.43861725030454,0.153488583333333,0.0021912806402514,0.389567450635555
196,82.3275449790698,-6.26723548165908,0.03247575,0.0101261780878704,1.79349626207077
198,79.7139012554191,0.0,-0.0450860416666671,0.0,0.0
200,76.9341887798194,5.13632497651485,0.0442109583333331,0.0133474056245406,1.23103168965326
202,74.0428881144748,2.06837029591523,0.122992541666667,0.0040147339169778,0.438662349276369
204,72.3568539097718,-2.43560379966126,0.0568164583333328,0.0078783090168022,0.942694681206119
206,72.4500727075303,0.0,-0.0168121666666664,0.0,0.0
208,69.7780504926278,0.0,-0.0038302499999994,0.0,0.0
210,69.3185558061769,-4.84283289503135,0.0285669583333332,0.0223781239841408,1.81613768543228
212,69.6090092693886,6.58815705268501,0.0592367499999996,0.009328890493171,0.857256701199186
214,69.6928667805418,5.37373505315172,0.0215973749999998,0.026801110511186,2.36960457279126
216,68.0965864267584,0.0,-0.0104481249999995,0.0,0.0
218,68.2496766326423,3.62099156703747,0.0517117916666667,0.0099451067658972,0.972263451400964
220,67.0329316811212,3.6495200545399,0.0541777499999999,0.0081033674158684,0.93667210907387
222,67.614060536284,21.2025915485314,0.0283842916666661,0.0137761632587566,1.77418692630093
224,68.4488281197073,23.6920610872714,0.0170409999999998,0.023473920936591,2.92362495591656
226,67.8988788618743,0.0,-0.0068062083333332,0.0,0.0
228,68.538604023325,0.574496622891652,0.193790375,0.0019453324678649,0.253774057982148
230,68.3884217079617,3.3873541437799,0.128908333333333,0.0023940877801416,0.384042279436952
232,68.7942401615166,0.0,-0.0583099583333326,0.0,0.0
234,68.2966601189893,0.0,-0.0045382916666666,0.0,0.0
236,69.432727391104,12.0355670993077,0.0178129583333333,0.0262204114779347,2.99241097070168
238,69.8871202087282,2.66660707966311,0.056183208333333,0.0089570401499465,0.93191873141869
240,71.6425266224364,51.1371115176472,0.0064482083333337,0.075475677354689,8.01647216463286
242,73.2578815788109,0.0,-0.0160120416666665,0.0,0.0
244,73.945900077455,0.794963538099522,0.0934643333333332,0.0049687640190193,0.551366949349088
246,73.7117579080887,0.659187780576539,0.145972375,0.0030582769153154,0.35884693351547
248,75.3877306743158,4.08970262238276,0.0274545416666661,0.0167834265131784,1.9272408422497
250,75.7913751766695,0.0,-0.038587583333333,0.0,0.0
252,75.3194407326016,8.10233089827857,0.0262411666666669,0.0165147817014338,2.03761624646054
254,74.4297994432754,2.88702290329529,0.0531081250000002,0.0072580472210581,1.02418443546972
256,72.6194957334157,4.33292416365492,0.0330757500000001,0.0076680816950995,1.58304000617945
258,72.1075091167535,6.98638180257782,0.0250421666666663,0.0149401461217527,2.10070342298055
260,71.5845481817415,19.4149865517535,0.0318900833333335,0.013620254288646,1.63913971578143
262,69.5518463172327,0.985763656863434,0.116247166666666,0.003513729945554,0.450073512582413
264,69.891188971983,7.94707307073873,0.0927870833333333,0.0037726032292657,0.566363854508215
266,69.7370352001197,0.0,-0.0450567499999997,0.0,0.0
268,68.9348798391605,27.7288364165048,0.017460583333333,0.03161126232463,3.05185810251576
270,69.3592294643342,10.2051374467295,0.0771430416666667,0.0087098210954158,0.688638247452412
272,68.4090048606324,12.1680164565664,0.0621902500000001,0.0102798866525633,0.831849788412516
274,67.3341634867448,0.0,-0.0015471249999992,0.0,0.0
276,69.2408193336014,0.0,-0.0152627500000001,0.0,0.0
278,67.3862658310381,19.0374691300051,0.0502058749999999,0.0144853286698444,0.972897260539328
280,66.7767861558278,7.90812241053335,0.0866491250000005,0.0106145192657357,0.554677361405238
282,65.8684196148472,10.9922838555139,0.0271332499999997,0.0320310045783105,1.77515333989882
284,64.6050026819056,0.0,-0.0295728333333338,0.0,0.0
286,63.792011365929,0.0,-0.0041787500000007,0.0,0.0
288,62.921409561025,16.28811004271,0.050909041666667,0.0160131507906789,0.933180552229121
290,59.953654117081,11.3841837932226,0.0350424583333337,0.0222248157244738,1.31826849426065
292,60.1679198131421,0.0,-0.0325079166666669,0.0,0.0
294,59.5934024296932,27.6635026216826,0.0120685416666666,0.0632046233220515,3.73639343051536
296,59.179303118258,1.46708177546793,0.106801708333333,0.0073163596718374,0.418496277388668
298,59.1676025692197,3.15625607302082,0.0939469166666668,0.0083608949358523,0.472913942020337
300,58.8183442522094,0.0,-0.0352099583333335,0.0,0.0
302,57.6273196872318,0.0,-0.0199217499999996,0.0,0.0
304,56.5672141494242,3.98391373766747,0.113417291666667,0.0097178410117442,0.368120380606812
306,57.047553801902,4.45658353115774,0.0715875833333332,0.0141668558866006,0.58048526076834
308,54.6483423618033,0.0,-0.0818636666666666,0.0,0.0
310,55.0153605725728,0.0,-0.0413335833333338,0.0,0.0
312,55.7374578815227,11.8429937598781,0.0501352083333332,0.0194647766682059,0.78684601857524
314,54.6642176360455,11.056431836563,0.0301273333333333,0.0325570664585189,1.29896979313085
316,52.9569215641706,302.122361914813,0.0023999583333328,0.440084269178389,16.7273660100576
318,52.4249657725478,0.0,-0.0028765000000003,0.0,0.0
320,53.0919320717561,31.4040050745032,0.0210025000000003,0.0493303721201335,1.79065970201124
322,52.6655142375684,9.62050582167506,0.0551511249999999,0.0192890832684051,0.674566602730673
324,52.5522042509815,29.6454019588083,0.0095917916666668,0.122545851478643,3.98253869264839
326,52.5771103493857,0.0,-0.0293630416666664,0.0,0.0
328,53.4595790331926,24.0574535409837,0.0200520416666667,0.0601487392422763,1.82866406401254
330,52.8196536485227,3.20968699280641,0.0547274999999994,0.0223202897800292,0.656843063101634
332,51.8478322628384,16.3078254042157,0.0268737916666669,0.045704154623032,1.33885937323219
334,51.2898360878378,0.0,-0.0353089583333329,0.0,0.0
336,50.2030585581474,0.0,-0.0033580833333335,0.0,0.0
338,49.6734731172299,3.3022402280124,0.0560379166666671,0.020315888068804,0.657424686377898
340,48.9809492037999,17.8801482298037,0.0281103749999994,0.0437168793354995,1.25090074361955
342,48.7382801444197,70.9639634248737,0.0034066249999995,0.402505091383909,10.7093777552707
344,47.8137960184819,0.0,-0.0045049999999999,0.0,0.0
346,48.182403108352,11.8814479009691,0.0170055416666668,0.0714455618202869,2.06799205263366
348,47.1237173637684,11.1189442007526,0.0570330000000003,0.020664906748848,0.63561286498858
350,47.1503990505957,455.842997633823,0.0014610833333331,0.890718462314287,24.2374909232299
352,46.4079946711154,0.0,-0.034131666666667,0.0,0.0
354,45.1124143809131,21.703405265221,0.02482475,0.046943027507489,1.45067143087969
356,44.9165861435269,6.35323670988823,0.0594021666666668,0.0221892221893036,0.608296898877736
358,45.4939213634196,3.51346937947763,0.0348058749999997,0.0357709792217697,1.00311328534827
360,45.0321315679763,0.0,-0.036398666666667,0.0,0.0
362,44.6067701143937,0.0,-0.0033627083333332,0.0,0.0
364,45.3270748518336,14.4434671550269,0.0523615833333337,0.0264190103834335,0.659153840692014
366,45.7927492150735,28.9503075787207,0.0265450833333335,0.0551032267170618,1.32093015189413
368,46.1244725299823,0.0,-0.0219772499999999,0.0,0.0
370,46.3496607508951,0.0,-0.0054281250000003,0.0,0.0
372,45.2609429005119,5.03216482524822,0.056627125,0.021949787543238,0.63196905998674
374,45.6582111928532,12.9739702719423,0.0340565000000003,0.0360122018025375,1.06192644105587
376,46.6619809690258,0.0,-0.0296379166666667,0.0,0.0
378,46.0394958823317,0.0,-0.0417687500000001,0.0,0.0
380,46.4110441022324,-2.30143857878516,0.0517236666666672,0.0266195273222729,0.664766879827744
382,47.1341182931242,8.25848437107399,0.0611540416666667,0.0230027689728177,0.574537838050873
384,47.5331135552187,0.0,-0.0024365833333334,0.0,0.0
386,46.2115516712243,0.0,-0.0109525,0.0,0.0
388,45.839859306822,34.9282953906794,0.0177447083333335,0.0805480046977296,2.02530318770584
390,44.6698945404847,3.28192031851373,0.0627194166666671,0.0221739231686782,0.590462950222389
392,43.7964809769506,76.8807777961442,0.0088670416666665,0.137384997212354,3.98993849634009
394,43.2981672764464,0.0,-0.0341747500000005,0.0,0.0
396,42.7001492179239,35.395662249359,0.0171979166666668,0.0794047683560555,2.01634754998741
398,42.1075920865436,3.80743617694673,0.0607373333333339,0.022201245351305,0.582106471148435
400,42.1936515880265,27.65147072625,0.0304099166666664,0.0430173036779176,1.15006293667442
402,42.0164484206907,0.0,-0.0072880416666668,0.0,0.0
404,43.4921228399612,28.9381527377877,0.0209954166666668,0.0604848514384042,1.55778200155379
406,41.7643942213769,11.7535655318618,0.0597098333333335,0.0211012098858742,0.543838942664795
408,42.9482245233054,180.140244066627,0.0029560416666663,0.393740172970327,11.1512453622701
410,43.9622234354548,0.0,-0.0291902916666669,0.0,0.0
412,43.6749341942264,0.0,-0.0032319583333331,0.0,0.0
414,43.1209631083521,13.4165199295489,0.0499375,0.0261856754286591,0.704140939162239
416,43.7040479559314,3.66108179703452,0.034054166666667,0.0391422107691908,1.01041164365759
418,43.6606893082269,0.0,-0.0282300833333328,0.0,0.0
420,42.0922610321996,0.0,-0.0065353333333334,0.0,0.0
422,42.5610778521858,27.5950028887437,0.0214700416666661,0.0573462051463946,1.50825017814503
424,43.1644743904263,19.8220302549276,0.0264633333333332,0.0506751452156199,1.23229026317204
426,42.3680586384272,241.787539837977,0.0029282083333333,0.503297097439716,11.4263197514418
428,43.246563233296,0.0,-0.0056704583333333,0.0,0.0
430,42.9308555433413,13.8537978428582,0.0309753333333334,0.0470071967385068,1.0549300192348
432,43.5626370912848,15.7863433874975,0.0387129166666668,0.0377105104015103,0.847185713533721
434,44.0873163418741,0.0,-0.0041338333333332,0.0,0.0
436,44.1691079290826,0.0,-0.0099064166666664,0.0,0.0
438,44.8120064163627,8.3667479317835,0.0275094583333336,0.0513802358461783,1.19835567215661
440,46.0787420730413,25.4525529475337,0.032866125,0.0417092951354346,1.02246710684082
442,47.0190284764472,0.0,-0.0041894166666665,0.0,0.0
444,46.9512869860965,0.0,-0.0097780833333337,0.0,0.0
446,46.1461036686182,12.321164001957,0.0231784999999998,0.0630449119087277,1.4462762602404
448,46.0102573173714,2.21649782852125,0.0645788333333338,0.0235129002325698,0.522776598820182
450,45.2801883443639,0.0,-0.0036497083333334,0.0,0.0
452,44.7190065144442,0.0,-0.0447673333333337,0.0,0.0
454,41.9760239304937,12.4371775103613,0.0576912916666662,0.021746566660946,0.585968722091155
456,41.4642727188027,9.07833561144162,0.0628401250000003,0.0208905238339551,0.525765458749925
458,41.0171531050858,0.0,-0.0257409166666665,0.0,0.0
460,40.2764134796728,0.0,-0.011354083333333,0.0,0.0
462,40.506774021056,10.4867306111505,0.0499372083333333,0.0272993411783158,0.649493350081001
464,40.3138093968372,17.2494673486446,0.0372032083333329,0.0384521355450198,0.907796862096646
466,39.7841309277539,189.584899306864,0.0027153750000002,0.52434204448015,12.3142435990717
468,39.966145057742,0.0,-0.0129152083333333,0.0,0.0
470,38.5976845608642,35.9375780227559,0.0207379166666667,0.0715959299918284,1.62733812167413
472,38.4225790437039,21.2606779672235,0.0392560000000001,0.037894058349806,0.875381089680702
474,39.9584596317915,0.0,-0.0251883333333333,0.0,0.0
476,40.7770606813138,0.0,-0.0315161250000003,0.0,0.0
478,41.723556744941,18.2850613272048,0.0273781249999999,0.0598646809373513,1.14360192991553
480,40.6102117066031,9.91758513666014,0.0573431666666668,0.0276758616502636,0.561593976158599
