Time (s),HRR (kW/m²),SEA (m²/kg),MLR (g/s),COY (kg/kg),CO2Y (kg/kg)
0,5.1090995619808,0.0556724330108157,0.504493458333312,0.0001687728497075,0.0036078089954273
2,3.06454645915365,0.0,-0.0772645416666625,0.0,0.0
4,1.72888987106384,0.0,-0.0386567916666702,0.0,0.0
6,1.53836599257132,200.327706026265,0.016220500000004,0.0017443483771311,0.20725114586631
8,-0.364936874854479,22.194318016962,0.110215833333329,0.0005113360193739,0.0814109344717572
10,-1.93800103953115,24.1708224580454,0.0728235000000007,0.0015269498090316,0.266816692437652
12,4.95742473034506,0.0,-0.0606390833333279,0.0,0.0
14,26.1977179270297,971.332785159656,0.0144741666666685,0.0304359594807622,2.30514476413575
16,43.2746309306452,413.82633640081,0.091031375,0.0050560186123655,0.442255042350213
18,50.539568800295,445.479324422472,0.120639541666662,0.0047590162387595,0.442806562011171
20,51.5398799267694,269.004162917381,0.301088749999998,0.0030482164343167,0.248523418862284
22,57.643154347821,457.413267649288,0.291537750000005,0.0069853132314881,0.346570619659568
24,79.0231736798064,996.751369809778,0.164141708333338,0.0262422561950824,0.847145447388116
26,117.866418585719,746.037731220874,0.18638641666667,0.0411987947327062,0.934000211440244
28,186.24372917215,463.423211212974,0.330972041666665,0.0353246552814081,0.606006921293678
30,243.933334700824,499.429095899562,0.246348958333334,0.0578591652741246,0.825502677659464
32,285.933215305034,2652.23088744412,0.0472939999999996,0.327775187176671,4.25031411065749
34,302.265905332524,1094.97425611186,0.100412958333333,0.158930508068689,1.96960530933466
36,300.474995008793,513.404067881798,0.164817125000001,0.0960240882941029,1.16328659365006
38,294.819478104223,377.175425702587,0.186800749999991,0.0815795546224825,0.984848811598138
40,283.796304907745,466.386138654421,0.0717196666666631,0.200385524011502,2.36272703068889
42,275.021517840294,320.682343018775,0.0524002500000075,0.248952012392158,2.92955597666325
44,262.243257320546,238.112681353937,0.0603511666666599,0.1857937219522,2.23508484470418
46,242.300314749398,267.86230159873,0.0445835833333241,0.20443108488149,2.65414890535364
48,210.668381837671,268.150795755041,0.0646669166666669,0.111542463345204,1.5891226202138
50,174.923039391679,297.358707881062,0.0517383333333422,0.109094472176242,1.68828209825483
52,145.130709258335,772.340895103973,0.0220742083333244,0.210738557400466,3.50655452958344
54,116.609093813346,287.513677867786,0.0589457083333317,0.064408165332301,1.17420423170639
56,96.2958558956137,180.762985117229,0.0607290416666745,0.0538232687368778,1.05704617193612
58,83.9739726678356,492.897365418256,0.0311306666666707,0.0916838365718466,1.96510395154785
60,74.3272956837635,192.102148377321,0.0732740833333345,0.0351814513278119,0.824411506429273
62,68.5811823198714,187.681080382812,0.0797782499999945,0.0306418150310301,0.764495519739061
64,67.3751060161301,252.660148400763,0.0533462500000089,0.0459836906300548,1.17092633417651
66,68.9449578438467,544.77581460093,0.0304932916666682,0.0786831804872686,2.12599021787275
68,73.4498356865776,488.065714053926,0.0430652499999956,0.0525741982998729,1.62398448091397
70,78.8737384867188,246.815968585163,0.0992400833333373,0.0219907584936853,0.718148631871023
72,85.0275339318386,594.869993834725,0.0415049166666641,0.0512501807784473,1.76005979881028
74,91.0239404612884,523.874831155581,0.0525947916666591,0.0405059604079246,1.40301573634234
76,95.5562219594156,317.971029170696,0.0870235000000091,0.0239160767931254,0.874752371849138
78,100.476727593776,582.758986315998,0.0480103750000052,0.0410475953492653,1.65052337652603
80,105.824592069882,445.803280620022,0.0677564999999933,0.0282916417238712,1.2033088071193
82,111.637624651283,388.193555071162,0.0660340416666638,0.0284967123811962,1.24726343156415
84,115.702868017775,685.456412738843,0.0528602500000031,0.0343529813552529,1.58446127722145
86,120.187592306069,598.668578509861,0.0609550000000046,0.0327378300347059,1.42986520283685
88,123.509158142949,479.090084205054,0.0747677916666708,0.0268456354425312,1.18176447325387
90,125.177643389404,370.557232849562,0.0918542499999949,0.0214562708493336,0.959891249266821
92,127.793662617303,496.414448930995,0.0744643333333291,0.0285894278003928,1.2237846900542
94,129.024578867819,571.152955355958,0.0566649583333382,0.0363594390017763,1.63026097352281
96,131.875280990008,625.018520355509,0.05464491666667,0.0346895950870259,1.72781017301355
98,134.508434473723,449.673925016142,0.0777483749999952,0.0247951602692788,1.19839574374839
100,138.334658849763,326.835214205799,0.0999702500000055,0.0195315397675222,0.94818250771352
102,139.023919970793,417.888745425089,0.0899856250000018,0.0198173057156857,1.07166723135719
104,140.875784828137,917.986862208482,0.0433579999999954,0.0408582983954564,2.24635489970062
106,144.189074150126,1056.60235977269,0.033268916666664,0.0546054457567515,2.97066621134608
108,144.093095159612,419.367298264916,0.0835633750000054,0.0214043388544351,1.17497561922775
110,146.598172212173,358.683818088356,0.103699041666662,0.0172529610250098,0.960418370411037
112,147.366058172044,524.047052277856,0.0667615416666685,0.0253761821924794,1.49764153863047
114,147.466057514332,2353.63956111669,0.0153615833333305,0.113058431128575,6.464610656071
116,146.273331589211,555.365618431409,0.0638299583333399,0.0275248804606844,1.52226702214422
118,143.348671458579,536.350012793499,0.0681506250000024,0.0238730029472243,1.40169418215614
120,144.883081719099,282.422275458172,0.124124041666664,0.012424393816758,0.77209948791247
122,143.592602453386,327.710311189322,0.0967717916666733,0.0142464762898706,0.998871821127712
124,141.923069510491,816.767144687928,0.0443405833333325,0.030008077951607,2.1735194324163
126,139.183436598104,496.494165855858,0.0667631666666644,0.0198151219058684,1.41413078408895
128,139.953809925292,1826.19367266141,0.0200459166666616,0.0682641092003475,4.74262522695458
130,139.477156200905,471.606929908146,0.0744605833333232,0.0185077382227107,1.26854605439473
132,138.229713074368,462.501606940136,0.0731763333333291,0.0171464341701443,1.30838808921354
134,136.840705286214,449.734887822928,0.0792863749999976,0.0151892044620896,1.20025353717179
136,136.644551068093,702.124186771048,0.0495706666666689,0.0218181008093636,1.90927473893725
138,136.972074071261,695.886168242848,0.0549594166666765,0.0200948890646223,1.71284321623309
140,137.571697187286,454.347326908389,0.0782685833333273,0.0148666404370086,1.19906462245893
142,136.101595335384,415.739102137564,0.0724202499999969,0.0175021836090143,1.30095329586075
144,135.412443282858,433.925193553125,0.0781206249999968,0.017070400339132,1.19894517858755
146,136.646004757448,858.06914925554,0.0440439166666711,0.0310945410630232,2.07933942695275
148,135.773806007036,688.377486870291,0.0490377083333264,0.0285626065621801,1.86109715912639
150,132.467049113081,382.92757786524,0.0806278750000023,0.0171781190578496,1.1347076224337
152,131.829308565091,405.300879120803,0.073353666666673,0.0184084353885836,1.23861841168598
154,129.623693131129,677.233217948847,0.0423870416666621,0.0285004999800351,2.11122915157651
156,131.281427874652,617.277451723499,0.0540494166666636,0.0218861791899391,1.68840558290034
158,128.795023451418,561.271145942355,0.0499872916666722,0.0231634437671609,1.77028723735365
160,129.774530405697,382.594350060219,0.0758197083333355,0.0147057113131635,1.16324829603273
162,129.246256212966,441.280335098898,0.0721174999999974,0.0162429489416634,1.21078295096433
164,127.611934512069,672.947027913188,0.0453972500000006,0.0278445558731604,1.91382198722338
166,125.521266999388,311.964481973957,0.0907882500000004,0.0134289175329032,0.977195486201846
168,123.194030648071,628.020549701614,0.0427994166666667,0.0273815454641686,2.06068048413018
170,125.481024869403,268.268554196598,0.0941824583333322,0.013187896018573,0.917910453771788
172,125.59031604306,261.915873561631,0.103437041666661,0.0132615919432419,0.83701108601476
174,123.424343965851,1445.28775108314,0.020245500000005,0.0651705202533355,4.26717204848935
176,123.982561333648,827.941378925209,0.0303207916666667,0.0420593302075448,2.81761970301044
178,123.278625218001,891.125279425347,0.0265644999999957,0.0491209305934813,3.23456106443751
180,122.11362905886,490.327954268053,0.0556442916666728,0.0215014071009313,1.50602274340494
182,123.282249786623,603.787963788338,0.0398209166666608,0.0309403199804716,2.13796918710425
184,122.912196981275,311.348702218431,0.077588249999998,0.0168846280455598,1.07959660636072
186,122.19068187592,527.971196747712,0.0565436250000021,0.0231667132244827,1.49416365150338
188,123.204573684297,510.202342978587,0.0527761249999953,0.0260486542527939,1.60217979903586
190,122.253504181194,326.516795210175,0.0759657916666671,0.0170183613163817,1.0872742316986
192,122.091327603499,392.230963790656,0.0661387500000075,0.0163780158892546,1.23112514573683
194,122.715087196945,408.870048593929,0.0677514583333287,0.0148399136937744,1.21788219535281
196,121.137941236518,516.946478043152,0.0517337916666657,0.0207063385724832,1.60018751639202
198,122.967770663544,769.996294375909,0.0335450833333404,0.0323067734125342,2.4496097914888
200,119.605736304004,460.908744123329,0.0532129583333318,0.0229809511792753,1.5163433922162
202,117.256927450188,350.224496933614,0.0752586666666701,0.0166895615246528,1.09233709765729
204,115.015830414526,354.503356800176,0.0638169583333372,0.0196902355835515,1.26327480598047
206,112.660345003588,330.676414702832,0.071299333333324,0.0187249494206882,1.11629931137557
208,112.245300599107,948.732519482142,0.0245936249999943,0.0556046090281778,3.28564965441683
210,112.415225005923,708.240444291031,0.0381322500000086,0.0353849239327335,2.10795151731219
212,112.871860890481,504.00885452872,0.0495987083333359,0.0253638766774901,1.59996447934101
214,110.652446419615,276.543728095339,0.0667063749999919,0.0149493470831014,1.17203838620585
216,110.122599240887,349.138134361294,0.0752958333333318,0.0124764408400756,1.01258125811344
218,108.441756589304,476.600100796412,0.0490479166666672,0.0195055169365456,1.56063171065857
220,108.654192669873,882.478468796278,0.0245593750000026,0.0449068470107909,3.09924148977062
222,109.050127278234,363.815763627352,0.0582905000000042,0.0217642492692043,1.30054093133911
224,110.143824631928,274.016088001129,0.0815718333333327,0.016864935214977,0.931740304903329
226,109.281643930341,585.953441044599,0.0384099166666658,0.0358221124120526,1.95920502966736
228,109.250716803965,405.96284620338,0.0468450833333366,0.0265376294428436,1.62328355286046
230,107.602785576543,386.371147634861,0.0519828750000049,0.0237215650960696,1.44713639351202
232,109.195222135815,508.762046196823,0.044504500000001,0.025248366757144,1.7082121342584
234,107.837523254718,395.192999871831,0.0533277499999952,0.0214430995488605,1.4324631037126
236,107.080296859317,878.334761251426,0.0233088333333278,0.0429880231696971,3.30359026464265
238,106.028866967404,376.210007401891,0.0545256666666714,0.0196776163954137,1.39239275610046
240,106.072105679643,341.268911680123,0.0624903750000042,0.0165479759915951,1.20253541886073
242,105.677073967494,942.44907546254,0.0196823750000021,0.0491091456100795,3.85804764409036
244,105.507972693576,381.78079264393,0.0484531666666683,0.0182683167872261,1.5458773332026
246,106.516765158547,271.391289130132,0.0769077083333277,0.0130981562212225,0.973631997165502
248,105.617806396438,380.550330650015,0.0473894166666599,0.0212478074201872,1.5652191161246
250,105.027991438066,893.736321301708,0.0227279166666676,0.0382548626995467,3.31524845352862
252,103.087628746222,373.308279909882,0.049373958333342,0.0167857895563254,1.48708661574235
254,102.778298271963,178.248925263972,0.0958527916666701,0.0088544089467392,0.749120558683511
256,104.801355204309,227.576598942929,0.0734912916666583,0.0122766551970966,1.0070488877644
258,103.764991310513,575.165558235218,0.0317411250000023,0.0314684636779722,2.29477358137322
260,104.140871621558,691.378057689783,0.0273393333333326,0.0331555807795748,2.7081407604538
262,102.342937694475,336.610258467273,0.0515509583333298,0.0159615715207255,1.403736333723
264,104.269312509613,444.041775543015,0.0475257916666673,0.0162652315572794,1.51693622016068
266,101.159922348634,348.692700348284,0.0511862916666684,0.0163380925186539,1.4067363156562
268,101.02353070499,342.300139744485,0.056326583333334,0.0168880919529393,1.29480200870719
270,100.934166578141,985.63700843671,0.0185321250000037,0.0477484670322358,3.92936922657893
272,99.1072943278214,342.941529839372,0.0512680833333299,0.0184893183065366,1.41401015582817
274,100.43165825724,323.40118376169,0.0519938333333402,0.0198362011528382,1.42269660911404
276,99.1403795316491,244.510176178681,0.0680441250000001,0.0161830435771085,1.07942771908871
278,97.0967676950045,390.754767700075,0.041840624999993,0.0239228181224439,1.71392303632199
280,97.1931978340617,446.118648914711,0.0370755416666704,0.0241836581942531,1.91986574431918
282,97.5074898827473,280.421415381508,0.0615985833333402,0.0151405611974577,1.17049485073038
284,97.4742546521372,397.491738801998,0.03822470833333,0.0267305284062469,1.8488254100335
286,99.0346719218308,389.547818208092,0.0488192083333274,0.0208166359803765,1.45027257861034
288,100.704177470935,375.601851279143,0.0506335416666654,0.0193677689061905,1.40708422491532
290,99.5706548370535,351.836948838315,0.0455901250000051,0.0187165244380616,1.58213498968155
292,100.031594622504,257.0794573788,0.0514143333333349,0.0155839496448411,1.38998048592421
294,100.316483356338,273.534269711087,0.0518750833333262,0.0132698849689226,1.35855230941893
296,100.105871598179,754.441363114597,0.0218192916666714,0.0277727518261211,3.23345955210333
298,100.623333685787,249.056004917033,0.062777958333335,0.0104050504601481,1.11776443661558
300,100.779012148706,252.617227567419,0.0576812083333256,0.0126330232546058,1.2292685103987
302,99.7607345053585,1121.80463120044,0.0121657916666737,0.061930835818041,5.76052015956324
304,99.0226056985994,276.337164507119,0.0456827083333297,0.0182407248459057,1.54609235263331
306,98.9299345128698,320.339983836183,0.0481711250000008,0.0194605780133288,1.50303122573965
308,98.0198797805422,262.016850241027,0.0540295416666699,0.0146462352834834,1.30938297583292
310,98.1974204993299,330.607499499501,0.0473287083333306,0.0182250036067208,1.46778988733925
312,96.6270540935214,274.532214893417,0.0468594999999989,0.0197908658800199,1.49158589687776
314,96.3437833870279,242.051474952022,0.0534412083333346,0.016663837491542,1.29985373490189
316,96.5059009011027,230.206413532369,0.0552542499999949,0.0148174578488921,1.25943194872765
318,95.9414257843,292.33351539204,0.0472114166666664,0.0167991869118716,1.45831114718469
320,95.0835546737066,280.825802627626,0.0520784583333374,0.0148012210038558,1.30156124898293
322,96.0952628194568,334.057010697569,0.0467571249999992,0.0157044754791019,1.46864615700041
324,94.8093015164032,550.786578776332,0.0234959166666696,0.0350333226748748,2.93287703667231
326,94.8383273466501,375.23983534416,0.0357277916666673,0.0255619325030956,1.96064569052443
328,93.967786814096,280.780945270528,0.0494054166666646,0.0173686246391839,1.38856546034389
330,95.5714065904968,277.088843248939,0.0511070833333373,0.0158998483286008,1.33307371761472
332,94.3469140731077,328.114384288062,0.0468471666666706,0.0157331692687808,1.42454060394644
334,91.9187642435816,738.062333971395,0.0175108749999957,0.0420482342473372,3.75934081920479
336,92.3129011183652,469.370610335273,0.0283171249999998,0.0241129680879133,2.42407387120474
338,93.3075818547836,267.250115439087,0.0577649166666632,0.0106705814056785,1.19521404107869
340,91.9856660761179,324.542061481173,0.0421322916666658,0.0157146219071147,1.58283373117811
342,92.8363447054527,281.576229580183,0.0489000416666627,0.0135499857924007,1.38197085369829
344,93.8109853126588,244.030671117714,0.0519164583333366,0.011325028098661,1.29471399729019
346,91.0996232404415,264.735505818776,0.0552062916666725,0.0117586709547066,1.20915587363904
348,90.7882626876103,206.783033162578,0.0603872083333303,0.0107034456217981,1.12864266288304
350,91.2527504513162,252.570180204748,0.040956125000001,0.0180679954816617,1.65739795760933
352,92.5264714568241,843.964861312273,0.013921791666661,0.0517995383523394,4.75196733423004
354,91.5426498318566,255.825631101863,0.0512505416666649,0.0123891395436416,1.31125901806138
356,90.8751324855374,220.330364377951,0.0557790000000047,0.013061714458305,1.17962343053835
358,90.9166643854844,533.409496482328,0.022595000000005,0.02930532582504,2.97529849827736
360,90.2845193182121,129.600316278049,0.0815718749999957,0.0072235650350374,0.79521805203532
362,92.1317523415297,277.015923816565,0.047846041666664,0.0150141390703209,1.32939719108901
364,91.3511949666842,646.886244790446,0.0174267083333319,0.0392142687524948,3.69361925871721
366,89.5555609025829,388.107601395422,0.0309200833333314,0.0201676573095577,2.09261434747678
368,90.4815152410519,244.203402394133,0.0510971666666684,0.012895843913292,1.26299051749772
370,90.1567065217229,132.497017313067,0.0852126249999981,0.0091189055130837,0.757717910231707
372,88.5876815604605,243.509742160033,0.0481910833333406,0.0169780507715548,1.29729988546406
374,91.2748017094892,850.933238872528,0.0152189583333294,0.0456482175272216,4.19561959424639
376,89.1829988432266,0.0,-0.0059899583333352,0.0,0.0
378,89.6858103358177,183.397662409609,0.0610766666666744,0.0105467050072,1.02741892453291
380,91.2648415524911,196.618806744385,0.055038458333326,0.0115439060840049,1.1758112012531
382,90.4323046524052,360.367221804858,0.0344629583333275,0.0154431219707761,1.92226365685672
384,91.1932164959248,155.268889542971,0.0741443333333388,0.0059440076721971,0.877148439738317
386,91.8021880983233,489.212789392572,0.0223723333333368,0.0226291897891017,2.88830522727987
388,91.5283611180497,279.119044895079,0.0375924999999988,0.0148841078615711,1.72089695031547
390,91.5002924560077,301.988802128561,0.034496791666669,0.015896435596147,1.8771512852539
392,92.6505520226772,285.851907109885,0.0361575833333253,0.0116018920298553,1.74755617522252
394,91.3508847708308,153.412438696957,0.0738799583333349,0.0074773900768484,0.858190320183408
396,90.940859900067,435.700029225246,0.0275037916666676,0.020885190074387,2.284291099559
398,88.8888828520469,232.555220853535,0.0507283749999961,0.012340524863168,1.25274715261421
400,87.4143779298143,233.774310688119,0.0542445833333337,0.0128392857903806,1.17741067055234
402,87.8927236961088,0.0,-0.0025127083333297,0.0,0.0
404,88.4683450026876,221.050261603505,0.0535161250000051,0.0121690453977651,1.15899104202803
406,86.4406728009808,181.077633107646,0.0519479583333305,0.0122159596158603,1.18419917162753
408,85.735207854222,602.510371599419,0.0175968750000036,0.0335875651847043,3.59442648186694
410,86.1567154439902,339.832760819847,0.029465374999995,0.0214913354667894,2.14265169111386
412,83.8783487912876,174.524363374121,0.0580418749999983,0.0118675740380171,1.07244732547457
414,84.7584580678967,124.405772513162,0.0808969583333325,0.0076161006050828,0.786461805987659
416,85.2639619174297,269.126090718197,0.0436072083333272,0.0156720303412148,1.41182025768782
418,84.4256587391216,1213.61403709142,0.009861750000006,0.0592872709258624,6.19135843465533
420,83.7256879773491,440.813149094254,0.02647570833334,0.0178488386804911,2.31759575605107
422,84.5513563476746,442.550085896369,0.0266223749999952,0.0172327052055518,2.36636381294155
424,83.5495787246686,365.983698594682,0.0286595833333318,0.0201036308375302,2.13441464035811
426,83.3450381746118,186.994566916144,0.0522862083333422,0.0117090556374883,1.12535424029189
428,83.9163684859161,263.52477536876,0.0421857916666622,0.0159639202700499,1.40857629115806
